Values,Density
-5.666379582012858,2.6734495456315344e-7
-5.661075640380858,2.609777846329653e-7
-5.655771698748858,2.574462840965186e-7
-5.650467757116858,2.566992017283276e-7
-5.645163815484858,2.587077124194259e-7
-5.639859873852857,2.6346500564544684e-7
-5.634555932220858,2.709859786842461e-7
-5.629251990588857,2.8130703186302064e-7
-5.623948048956857,2.9448596364223256e-7
-5.618644107324857,3.106019607901356e-7
-5.613340165692857,3.297556828707471e-7
-5.608036224060856,3.52069436548863e-7
-5.602732282428856,3.776874367145133e-7
-5.597428340796856,4.067761527892788e-7
-5.592124399164856,4.395247349131548e-7
-5.5868204575328555,4.7614551881847156e-7
-5.581516515900856,5.168746046724237e-7
-5.5762125742688555,5.619725076400073e-7
-5.570908632636855,6.117248751158488e-7
-5.5656046910048556,6.664432686820376e-7
-5.560300749372855,7.264660053518668e-7
-5.554996807740855,7.921590547965707e-7
-5.549692866108854,8.639169880864106e-7
-5.544388924476855,9.421639732831721e-7
-5.539084982844854,1.0273548123607146e-6
-5.533781041212854,1.1199760162894368e-6
-5.528477099580854,1.2205469097081867e-6
-5.523173157948854,1.329620762408057e-6
-5.5178692163168535,1.447785939273638e-6
-5.512565274684853,1.575667063102859e-6
-5.5072613330528535,1.7139261832554986e-6
-5.501957391420853,1.8632639426086062e-6
-5.496653449788853,2.024420734704664e-6
-5.491349508156853,2.1981778435108817e-6
-5.486045566524853,2.3853585570067157e-6
-5.480741624892852,2.586829244691745e-6
-5.475437683260852,2.8035003910185582e-6
-5.470133741628852,3.0363275730534156e-6
-5.464829799996852,3.286312373413508e-6
-5.459525858364851,3.5545032170342453e-6
-5.454221916732852,3.841996120464847e-6
-5.448917975100851,4.149935342639445e-6
-5.443614033468851,4.479513924838391e-6
-5.4383100918368505,4.831974107921341e-6
-5.433006150204851,5.208607613941402e-6
-5.427702208572851,5.610755780238383e-6
-5.42239826694085,6.039809531868841e-6
-5.417094325308851,6.4972091810009194e-6
-5.41179038367685,6.984444038595199e-6
-5.40648644204485,7.503051826182085e-6
-5.40118250041285,8.054617875259597e-6
-5.39587855878085,8.64077409932747e-6
-5.390574617148849,9.263197728702141e-6
-5.385270675516849,9.923609793692327e-6
-5.379966733884849,1.0623773344906311e-5
-5.374662792252849,1.136549139959175e-5
-5.3693588506208485,1.2150604602350658e-5
-5.364054908988849,1.2980988591003006e-5
-5.3587509673568485,1.3858551057545788e-5
-5.353447025724848,1.4785228496080362e-5
-5.348143084092848,1.5762982630257005e-5
-5.342839142460848,1.6793796513770928e-5
-5.337535200828848,1.7879670299756397e-5
-5.332231259196847,1.902261667360329e-5
-5.326927317564848,2.0224655949471065e-5
-5.321623375932847,2.1487810827402337e-5
-5.316319434300847,2.281410081399985e-5
-5.311015492668846,2.420553630850652e-5
-5.305711551036847,2.5664112359525225e-5
-5.3004076094048465,2.7191802098830258e-5
-5.295103667772846,2.8790549861503444e-5
-5.2897997261408465,3.0462264002503216e-5
-5.284495784508846,3.220880942450717e-5
-5.279191842876846,3.403199983001686e-5
-5.273887901244845,3.5933589718394054e-5
-5.268583959612846,3.791526614531273e-5
-5.263280017980845,3.9978640269030044e-5
-5.257976076348845,4.212523870812234e-5
-5.252672134716845,4.4356494736467675e-5
-5.247368193084845,4.6673739347800544e-5
-5.242064251452844,4.907819221967695e-5
-5.236760309820845,5.15709526125209e-5
-5.231456368188844,5.415299023950673e-5
-5.226152426556844,5.682513614676827e-5
-5.2208484849248435,5.9588073644013806e-5
-5.215544543292844,6.244232932870603e-5
-5.210240601660844,6.538826424809865e-5
-5.204936660028843,6.842606524474267e-5
-5.199632718396844,7.155573653341418e-5
-5.194328776764843,7.477709155896076e-5
-5.189024835132843,7.808974518236107e-5
-5.183720893500842,8.149310624845033e-5
-5.178416951868843,8.498637058440214e-5
-5.173113010236842,8.856851448113719e-5
-5.167809068604842,9.22382887090659e-5
-5.162505126972842,9.599421311886312e-5
-5.157201185340842,9.98345718786868e-5
-5.1518972437088415,0.00010375740939612757
-5.146593302076841,0.00010776052697554842
-5.1412893604448415,0.00011184148025528834
-5.135985418812841,0.00011599757747214785
-5.130681477180841,0.00012022587859471419
-5.125377535548841,0.0001245231953670104
-5.120073593916841,0.00012888609229955682
-5.11476965228484,0.0001333108886429511
-5.10946571065284,0.00013779366137454951
-5.10416176902084,0.00014233024922652004
-5.09885782738884,0.00014691625777818636
-5.093553885756839,0.00015154706563135292
-5.08824994412484,0.00015621783168426676
-5.0829460024928395,0.00016092350351239442
-5.077642060860839,0.00016565882686197728
-5.0723381192288395,0.00017041835625516196
-5.067034177596839,0.00017519646670095639
-5.061730235964839,0.0001799873664993061
-5.056426294332838,0.00018478511112294226
-5.051122352700839,0.0001895836181522708
-5.045818411068838,0.00019437668323524487
-5.040514469436838,0.00019915799703664958
-5.035210527804838,0.00020392116313706823
-5.029906586172838,0.00020865971683385783
-5.024602644540837,0.00021336714479350954
-5.019298702908837,0.00021803690549538745
-5.013994761276837,0.00022266245040553512
-5.008690819644837,0.00022723724580981253
-5.0033868780128365,0.0002317547952343478
-4.998082936380837,0.00023620866237373736
-4.992778994748837,0.0002405924944431457
-4.987475053116836,0.00024490004586859813
-4.982171111484836,0.0002491252022220284
-4.976867169852836,0.0002532620043076538
-4.971563228220836,0.0002573046723010706
-4.966259286588835,0.00026124762984003
-4.960955344956836,0.0002650855279646147
-4.955651403324835,0.00026881326880188496
-4.950347461692835,0.00027242602888795375
-4.9450435200608345,0.0002759192820225749
-4.939739578428835,0.00027928882154741076
-4.9344356367968345,0.0002825307819423247
-4.929131695164834,0.0002856416596331412
-4.9238277535328345,0.0002886183329062642
-4.918523811900834,0.00029145808082837836
-4.913219870268834,0.00029415860106864894
-4.907915928636833,0.00029671802652896876
-4.902611987004834,0.0002991349406859358
-4.897308045372833,0.00030140839155569886
-4.892004103740833,0.0003035379041958462
-4.886700162108833,0.00030552349166464675
-4.881396220476833,0.0003073656643606858
-4.876092278844832,0.00030906543767582426
-4.870788337212833,0.0003106243378966358
-4.8654843955808325,0.0003120444062988583
-4.860180453948832,0.00031332820138463974
-4.854876512316832,0.000314478799221779
-4.849572570684832,0.0003154997918483112
-4.844268629052832,0.00031639528371764977
-4.838964687420831,0.0003171698861644031
-4.833660745788832,0.00031782870988019025
-4.828356804156831,0.0003183773553986956
-4.823052862524831,0.00031882190159497137
-4.81774892089283,0.00031916889221383915
-4.812444979260831,0.0003194253204523694
-4.80714103762883,0.00031959861162686454
-4.80183709599683,0.00031969660396568775
-4.79653315436483,0.0003197275275766756
-4.79122921273283,0.0003196999816469613
-4.7859252711008295,0.0003196229099403196
-4.780621329468829,0.00031950557466505457
-4.77531738783683,0.00031935752879540605
-4.770013446204829,0.0003191885869325249
-4.764709504572829,0.00031900879480417296
-4.759405562940829,0.0003188283975029795
-4.754101621308829,0.00031865780657512263
-4.748797679676828,0.00031850756607360205
-4.743493738044828,0.0003183883176978153
-4.738189796412828,0.00031831076514672943
-4.732885854780828,0.00031828563781666295
-4.7275819131488275,0.0003183236539803522
-4.722277971516828,0.0003184354835869107
-4.7169740298848275,0.0003186317108265415
-4.711670088252827,0.00031892279660690644
-4.7063661466208275,0.0003193190410893604
-4.701062204988827,0.00031983054643618634
-4.695758263356827,0.0003204671799213292
-4.690454321724826,0.00032123853755685727
-4.685150380092827,0.0003221539083888012
-4.679846438460826,0.0003232222396143112
-4.674542496828826,0.0003244521026726692
-4.669238555196826,0.00032585166045926046
-4.663934613564826,0.0003274286358108864
-4.658630671932825,0.00032919028140758477
-4.653326730300825,0.00033114335123178703
-4.6480227886688255,0.0003332940737236726
-4.642718847036825,0.0003356481267649883
-4.637414905404825,0.00033821061461966617
-4.632110963772825,0.0003409860469532969
-4.626807022140825,0.0003439783200475926
-4.621503080508824,0.00034719070031916967
-4.616199138876824,0.00035062581024396244
-4.610895197244824,0.00035428561678116713
-4.605591255612824,0.0003581714223829871
-4.600287313980823,0.00036228385866524104
-4.594983372348824,0.0003666228828077007
-4.589679430716823,0.0003711877767401152
-4.584375489084823,0.00037597714916214053
-4.5790715474528225,0.0003809889404337366
-4.573767605820823,0.000386220430360365
-4.5684636641888225,0.00039166824888997066
-4.563159722556822,0.00039732838972219783
-4.557855780924823,0.0004031962268225119
-4.552551839292822,0.00040926653382005514
-4.547247897660822,0.0004155335062565931
-4.541943956028822,0.000421990786641061
-4.536640014396822,0.0004286314922534451
-4.531336072764821,0.0004354482456274287
-4.526032131132821,0.0004424332076310329
-4.520728189500821,0.00044957811305102336
-4.515424247868821,0.0004568743085764512
-4.5101203062368205,0.0004643127930626075
-4.504816364604821,0.0004718842599482579
-4.4995124229728205,0.0004795791416857928
-4.49420848134082,0.00048738765603417115
-4.48890453970882,0.000495299854054442
-4.48360059807682,0.0005033056696376109
-4.47829665644482,0.0005113949703857406
-4.472992714812819,0.000519557609658855
-4.46768877318082,0.0005277834795924773
-4.462384831548819,0.0005360625648829428
-4.457080889916819,0.0005443849971329771
-4.451776948284818,0.0005527411095425372
-4.446473006652819,0.0005611214917275852
-4.441169065020818,0.0005695170444439592
-4.435865123388818,0.0005779190339924543
-4.4305611817568185,0.0005863191460780456
-4.425257240124818,0.0005947095388977135
-4.419953298492818,0.0006030828952285159
-4.414649356860817,0.0006114324732924854
-4.409345415228818,0.0006197521561748711
-4.404041473596817,0.0006280364995760856
-4.398737531964817,0.0006362807776845465
-4.393433590332817,0.0006444810269589625
-4.388129648700817,0.0006526340876199044
-4.382825707068816,0.0006607376426542317
-4.377521765436817,0.0006687902541469394
-4.372217823804816,0.0006767913967630559
-4.366913882172816,0.0006847414882140109
-4.3616099405408155,0.0006926419165520833
-4.356305998908816,0.0007004950641504816
-4.3510020572768155,0.000708304328237922
-4.345698115644815,0.0007160741378712627
-4.340394174012816,0.0007238099672420848
-4.335090232380815,0.0007315183452290602
-4.329786290748815,0.0007392068611221042
-4.324482349116814,0.0007468841664596045
-4.319178407484815,0.0007545599729365583
-4.313874465852814,0.0007622450463553969
-4.308570524220814,0.0007699511966099231
-4.303266582588814,0.0007776912637053885
-4.297962640956814,0.0007854790998373777
-4.2926586993248135,0.0007933295475647264
-4.287354757692813,0.0008012584141298515
-4.2820508160608135,0.0008092824419936276
-4.276746874428813,0.0008174192756675112
-4.271442932796813,0.0008256874249404755
-4.266138991164813,0.0008341062246124532
-4.260835049532813,0.0008426957908581182
-4.255531107900812,0.0008514769743602978
-4.250227166268812,0.0008604713103624205
-4.244923224636812,0.0008697009658014372
-4.239619283004812,0.0008791886836944512
-4.234315341372811,0.0008889577249608645
-4.229011399740812,0.0008990318078717472
-4.223707458108811,0.0009094350453266622
-4.218403516476811,0.0009201918801646227
-4.2130995748448115,0.0009313270187229238
-4.207795633212811,0.0009428653628646567
-4.202491691580811,0.0009548319406968393
-4.19718774994881,0.0009672518362088469
-4.191883808316811,0.0009801501180615676
-4.18657986668481,0.00099355176776008
-4.18127592505281,0.001007481607444522
-4.17597198342081,0.001021964227534138
-4.17066804178881,0.0010370239144582918
-4.165364100156809,0.0010526845787086354
-4.160060158524809,0.001068969683443751
-4.154756216892809,0.0010859021738750016
-4.149452275260809,0.0011035044076608733
-4.1441483336288085,0.0011217980865311902
-4.138844391996809,0.0011408041893597332
-4.1335404503648085,0.0011605429068991396
-4.128236508732808,0.0011810335783864166
-4.122932567100808,0.0012022946302212498
-4.117628625468808,0.0012243435169147898
-4.112324683836808,0.001247196664499052
-4.107020742204807,0.0012708694165805851
-4.101716800572808,0.0012953759832163587
-4.096412858940807,0.0013207293927806445
-4.091108917308807,0.0013469414469863567
-4.0858049756768064,0.0013740226792159464
-4.080501034044807,0.0014019823163084876
-4.0751970924128065,0.0014308282439433034
-4.069893150780806,0.0014605669757513737
-4.0645892091488065,0.0014912036262768897
-4.059285267516806,0.0015227418879062132
-4.053981325884806,0.001555184011867934
-4.048677384252806,0.0015885307934044917
-4.043373442620806,0.0016227815612024476
-4.038069500988805,0.0016579341711633637
-4.032765559356805,0.0016939850045845847
-4.027461617724805,0.0017309289708133625
-4.022157676092805,0.001768759514424666
-4.016853734460804,0.0018074686269663508
-4.011549792828805,0.0018470468633031431
-4.006245851196804,0.001887483362581416
-4.000941909564804,0.0019287658738262178
-3.995637967932804,0.0019708807861703254
-3.9903340263008036,0.0020138131637046633
-3.9850300846688036,0.002057546784926945
-3.9797261430368036,0.0021020641867547387
-3.974422201404803,0.0021473467130543426
-3.969118259772803,0.0021933745676281976
-3.9638143181408028,0.002240126871585549
-3.9585103765088028,0.0022875817250123803
-3.9532064348768023,0.0023357162728401826
-3.9479024932448024,0.0023845067747997
-3.9425985516128024,0.0024339286793328783
-3.937294609980802,0.0024839567013197825
-3.931990668348802,0.0025345649034646846
-3.9266867267168015,0.0025857267811693757
-3.9213827850848015,0.002637415350707762
-3.9160788434528016,0.002689603240501168
-3.910774901820801,0.0027422627852777236
-3.905470960188801,0.0027953661228875618
-3.9001670185568007,0.002848885293527271
-3.8948630769248007,0.0029027923411167125
-3.8895591352928003,0.0029570594165558312
-3.8842551936608003,0.003011658882576051
-3.8789512520288003,0.0030665634198888143
-3.8736473103968,0.003121746134322018
-3.8683433687648,0.003177180664624026
-3.8630394271327995,0.0032328412906040523
-3.8577354855007995,0.0032887030412705014
-3.852431543868799,0.00334474180261794
-3.847127602236799,0.0034009344247096854
-3.841823660604799,0.0034572588276947916
-3.8365197189727986,0.003513694106395856
-3.8312157773407987,0.0035702206330992933
-3.8259118357087982,0.003626820158181108
-3.8206078940767982,0.0036834759081986156
-3.8153039524447983,0.0037401726810822105
-3.810000010812798,0.003796896938064933
-3.804696069180798,0.003853636891991371
-3.7993921275487974,0.003910382591655871
-3.7940881859167974,0.003967126001828343
-3.788784244284797,0.004023861078635928
-3.783480302652797,0.00408058383998177
-3.778176361020797,0.004137292430694904
-3.7728724193887966,0.004193987182122574
-3.7675684777567966,0.0042506706658912395
-3.762264536124796,0.004307347741583286
-3.756960594492796,0.004364025598095105
-3.751656652860796,0.004420713788464637
-3.7463527112287958,0.004477424257979191
-3.7410487695967958,0.0045341713653975005
-3.7357448279647953,0.004590971897146724
-3.7304408863327954,0.00464784507437902
-3.725136944700795,0.0047048125528006725
-3.719833003068795,0.004761898415213055
-3.714529061436795,0.004819129156733489
-3.7092251198047945,0.00487653366269105
-3.7039211781727945,0.004934143179221055
-3.698617236540794,0.004991991276611351
-3.693313294908794,0.005050113805479444
-3.6880093532767937,0.005108548845888776
-3.6827054116447937,0.005167336649539165
-3.6774014700127937,0.005226519575192514
-3.6720975283807933,0.005286142017521361
-3.6667935867487933,0.005346250329590844
-3.661489645116793,0.005406892739210226
-3.656185703484793,0.005468119259410038
-3.650881761852793,0.005529981593323482
-3.6455778202207925,0.005592533033767813
-3.6402738785887925,0.005655828357841772
-3.634969936956792,0.005719923716866785
-3.629665995324792,0.00578487652201801
-3.6243620536927916,0.005850745325999824
-3.6190581120607916,0.005917589701131574
-3.6137541704287917,0.005985470114217677
-3.6084502287967912,0.006054447798581896
-3.6031462871647912,0.006124584623648876
-3.597842345532791,0.006195942962459138
-3.592538403900791,0.0062685855575021505
-3.587234462268791,0.0063425753852520295
-3.5819305206367904,0.00641797551978366
-3.5766265790047904,0.006494848995844665
-3.57132263737279,0.006573258671747793
-3.56601869574079,0.006653267092441857
-3.5607147541087896,0.006734936353106824
-3.5554108124767896,0.006818327963607249
-3.5501068708447896,0.0069035027141254555
-3.544802929212789,0.0069905205422803145
-3.539498987580789,0.007079440402022563
-3.5341950459487887,0.007170320134581535
-3.5288911043167888,0.007263216341720906
-3.5235871626847883,0.007358184261543821
-3.5182832210527883,0.007455277647069785
-3.5129792794207884,0.007554548647788794
-3.507675337788788,0.007656047694378683
-3.502371396156788,0.0077598233867557185
-3.4970674545247875,0.007865922385610308
-3.4917635128927875,0.007974389307563114
-3.4864595712607875,0.008085266624060745
-3.481155629628787,0.008198594564115078
-3.475851687996787,0.008314411020975115
-3.4705477463647867,0.008432751462809467
-3.4652438047327867,0.008553648847460845
-3.4599398631007863,0.00867713354132843
-3.4546359214687863,0.008803233242420189
-3.4493319798367863,0.00893197290761176
-3.444028038204786,0.009063374684140143
-3.438724096572786,0.00919745784535597
-3.4334201549407855,0.009334238730755362
-3.4281162133087855,0.00947373069030777
-3.422812271676785,0.009615944033098192
-3.417508330044785,0.009760885980300844
-3.412204388412785,0.009908560622505048
-3.4069004467807846,0.010058968881416126
-3.4015965051487846,0.010212108475960066
-3.396292563516784,0.010367973892825759
-3.3909886218847842,0.010526556361485976
-3.3856846802527842,0.01068784383374562
-3.380380738620784,0.010851820967874752
-3.375076796988784,0.011018469117393414
-3.3697728553567834,0.011187766324583157
-3.3644689137247834,0.011359687318813155
-3.359164972092783,0.011534203519775613
-3.353861030460783,0.0117112830457378
-3.348557088828783,0.01189089072692628
-3.3432531471967826,0.012072988124168722
-3.3379492055647826,0.01225753355292767
-3.332645263932782,0.012444482112868539
-3.327341322300782,0.012633785723110696
-3.322037380668782,0.012825393163316802
-3.3167334390367817,0.01301925012078074
-3.3114294974047818,0.01321529924367569
-3.3061255557727813,0.013413480200627922
-3.3008216141407813,0.013613729746780084
-3.295517672508781,0.01381598179650538
-3.290213730876781,0.014020167502932336
-3.284909789244781,0.014226215344430413
-3.2796058476127805,0.014434051218201668
-3.2743019059807805,0.014643598541111039
-3.26899796434878,0.014854778357876519
-3.26369402271678,0.015067509456725126
-3.2583900810847797,0.015281708492603473
-3.2530861394527797,0.015497290118011941
-3.2477821978207797,0.015714167121511396
-3.2424782561887793,0.015932250573925756
-3.2371743145567793,0.016151449982239073
-3.231870372924779,0.016371673451158357
-3.226566431292779,0.01659282785228253
-3.221262489660779,0.016814819000788146
-3.2159585480287785,0.017037551839507992
-3.2106546063967785,0.017260930630245926
-3.205350664764778,0.01748485915213464
-3.200046723132778,0.01770924090680675
-3.1947427815007776,0.017933979330112156
-3.1894388398687776,0.01815897801007724
-3.1841348982367776,0.018384140910761113
-3.178830956604777,0.018609372601627594
-3.1735270149727772,0.018834578492011006
-3.168223073340777,0.019059665070217297
-3.162919131708777,0.019284540146762074
-3.157615190076777,0.019509113101212273
-3.1523112484447764,0.019733295132059486
-3.1470073068127764,0.0199569995090208
-3.141703365180776,0.020180141827127008
-3.136399423548776,0.020402640261928215
-3.1310954819167756,0.02062441582511541
-3.1257915402847756,0.020845392619830195
-3.1204875986527756,0.02106549809490794
-3.115183657020775,0.021284663297277916
-3.109879715388775,0.021502823121722393
-3.1045757737567747,0.021719916557180002
-3.0992718321247748,0.021935886928763308
-3.0939678904927743,0.022150682134649775
-3.0886639488607743,0.022364254876995705
-3.0833600072287743,0.022576562886018905
-3.078056065596774,0.022787569136393328
