Values,Density
-4.950299724324345,1.9235044276810775e-7
-4.944973585326283,1.9437878664985142e-7
-4.9396474463282205,1.9841936083064837e-7
-4.934321307330158,2.045029759978334e-7
-4.928995168332096,2.1267572314354055e-7
-4.923669029334033,2.2299917101786804e-7
-4.918342890335971,2.355506275308894e-7
-4.913016751337909,2.5042346329939846e-7
-4.907690612339847,2.6772749736614365e-7
-4.902364473341785,2.8758944570217437e-7
-4.897038334343723,3.101534308269649e-7
-4.891712195345661,3.355815529348938e-7
-4.8863860563475985,3.640545210292778e-7
-4.8810599173495355,3.957723450354056e-7
-4.875733778351473,4.3095508497903445e-7
-4.870407639353411,4.698436601169309e-7
-4.865081500355349,5.127007129124284e-7
-4.859755361357287,5.598115297156259e-7
-4.854429222359225,6.114850144567363e-7
-4.849103083361163,6.680547144088944e-7
-4.843776944363101,7.298798965771347e-7
-4.838450805365038,7.973466709110255e-7
-4.833124666366976,8.708691599246254e-7
-4.8277985273689135,9.508907100885811e-7
-4.822472388370851,1.0378851431347424e-6
-4.817146249372789,1.1323580437205827e-6
-4.811820110374727,1.2348480795953964e-6
-4.806493971376665,1.3459283501049413e-6
-4.801167832378603,1.4662077597593637e-6
-4.79584169338054,1.5963324107026722e-6
-4.790515554382478,1.7369870106143104e-6
-4.785189415384416,1.888896289187203e-6
-4.7798632763863536,2.052826418879293e-6
-4.774537137388291,2.2295864328608986e-6
-4.769210998390229,2.420029633899874e-6
-4.763884859392167,2.625054987610842e-6
-4.758558720394105,2.845608492625662e-6
-4.753232581396042,3.0826845204357314e-6
-4.74790644239798,3.337327116391224e-6
-4.742580303399918,3.6106312547084726e-6
-4.737254164401856,3.903744037941914e-6
-4.731928025403794,4.217865833228834e-6
-4.7266018864057315,4.554251335016531e-6
-4.721275747407669,4.9142105466278355e-6
-4.715949608409607,5.299109670239312e-6
-4.710623469411544,5.710371896215129e-6
-4.705297330413482,6.149478081904358e-6
-4.69997119141542,6.617967311457057e-6
-4.694645052417358,7.117437325405117e-6
-4.689318913419296,7.64954481238811e-6
-4.683992774421234,8.216005552396342e-6
-4.678666635423172,8.818594403887936e-6
-4.6733404964251095,9.459145124472192e-6
-4.6680143574270465,1.0139550018438068e-5
-4.662688218428984,1.0861759402559963e-5
-4.657362079430922,1.1627780882848132e-5
-4.65203594043286,1.2439678435904183e-5
-4.646709801434798,1.3299571289142331e-5
-4.641383662436736,1.4209632594391203e-5
-4.636057523438674,1.5172087890950522e-5
-4.630731384440612,1.6189213355487578e-5
-4.625405245442549,1.7263333835270192e-5
-4.620079106444487,1.8396820665985206e-5
-4.6147529674464245,1.9592089272747748e-5
-4.609426828448362,2.0851596556624094e-5
-4.6041006894503,2.21778380705296e-5
-4.598774550452238,2.3573344988035358e-5
-4.593448411454176,2.5040680872506424e-5
-4.588122272456114,2.6582438253468926e-5
-4.582796133458052,2.820123502056404e-5
-4.577469994459989,2.9899710645819866e-5
-4.572143855461927,3.168052224810855e-5
-4.566817716463865,3.354634051353986e-5
-4.5614915774658025,3.5499845490109816e-5
-4.55616543846774,3.754372227312598e-5
-4.550839299469678,3.968065660395377e-5
-4.545513160471616,4.191333040187706e-5
-4.540187021473554,4.424441725538533e-5
-4.534860882475491,4.667657789594187e-5
-4.529534743477429,4.9212455683442236e-5
-4.524208604479367,5.185467213056523e-5
-4.518882465481305,5.460582249722408e-5
-4.513556326483243,5.746847148542164e-5
-4.5082301874851805,6.0445149068142495e-5
-4.502904048487118,6.353834648492422e-5
-4.497577909489056,6.675051243922384e-5
-4.492251770490993,7.008404953223746e-5
-4.486925631492931,7.35413109689588e-5
-4.481599492494869,7.712459757174342e-5
-4.476273353496807,8.083615513824853e-5
-4.470947214498745,8.467817217779929e-5
-4.465621075500683,8.865277806251008e-5
-4.4602949365026205,9.276204162710425e-5
-4.454968797504558,9.700797025019407e-5
-4.449642658506495,0.0001013925094499029
-4.444316519508433,0.00010591754302354678
-4.438990380510371,0.00011058489375987898
-4.433664241512309,0.00011539632475107003
-4.428338102514247,0.0001203535413271551
-4.423011963516185,0.00012545819363503005
-4.417685824518123,0.00013071187987933122
-4.412359685520061,0.000136116150240808
-4.407033546521998,0.0001416725114827891
-4.4017074075239355,0.00014738243225330405
-4.396381268525873,0.00015324734908651189
-4.391055129527811,0.00015926867310257775
-4.385728990529749,0.00016544779739992993
-4.380402851531687,0.00017178610513118864
-4.375076712533625,0.00017828497824683154
-4.369750573535563,0.00018494580688834666
-4.3644244345375,0.00019176999940423087
-4.359098295539438,0.00019875899296244517
-4.353772156541376,0.0002059142647209758
-4.3484460175433135,0.00021323734352021034
-4.343119878545251,0.0002207298220501322
-4.337793739547189,0.00022839336944471822
-4.332467600549127,0.0002362297442474147
-4.327141461551065,0.00024424080769068143
-4.321815322553002,0.00025242853722569347
-4.31648918355494,0.00026079504023424765
-4.311163044556878,0.0002693425678531314
-4.305836905558816,0.00027807352883529174
-4.300510766560754,0.00028699050337052667
-4.2951846275626915,0.0002960962567849536
-4.289858488564629,0.0003053937530369012
-4.284532349566567,0.00031488616792356774
-4.279206210568504,0.0003245769019137243
-4.273880071570442,0.00033446959251846875
-4.26855393257238,0.0003445681261135744
-4.263227793574318,0.00035487664912594447
-4.257901654576256,0.00036539957849836616
-4.252575515578194,0.00037614161134806937
-4.247249376580132,0.0003871077337357122
-4.2419232375820695,0.00039830322846539506
-4.236597098584007,0.0004097336818380398
-4.231270959585944,0.00042140498928585485
-4.225944820587882,0.00043332335981799766
-4.22061868158982,0.0004454953192145582
-4.215292542591758,0.00045792771190928533
-4.209966403593696,0.00047062770150941777
-4.204640264595634,0.0004836027699058505
-4.199314125597572,0.0004968607149347486
-4.1939879865995096,0.0005104096465577933
-4.1886618476014466,0.000524257981538382
-4.183335708603384,0.0005384144365948862
-4.178009569605322,0.0005528880200251669
-4.17268343060726,0.0005676880218004263
-4.167357291609198,0.0005828240021391422
-4.162031152611136,0.0005983057785768596
-4.156705013613074,0.0006141434115586562
-4.151378874615012,0.0006303471885898485
-4.146052735616949,0.000646927606986758
-4.140726596618887,0.0006638953552811043
-4.1354004576208245,0.0006812612933376448
-4.130074318622762,0.0006990364312524158
-4.1247481796247,0.0007172319071089527
-4.119422040626638,0.0007358589636743199
-4.114095901628576,0.0007549289241257952
-4.108769762630514,0.0007744531669038185
-4.103443623632451,0.0007944430997938734
-4.098117484634389,0.0008149101333447435
-4.092791345636327,0.0008358656537344675
-4.087465206638265,0.0008573209952007013
-4.0821390676402025,0.0008792874121542407
-4.07681292864214,0.0009017760510977094
-4.071486789644078,0.0009247979224729606
-4.066160650646016,0.0009483638725618013
-4.060834511647953,0.0009724845555653949
-4.055508372649891,0.0009971704059867255
-4.050182233651829,0.001022431611439882
-4.044856094653767,0.001048278086007711
-4.039529955655705,0.0010747194442670381
-4.034203816657643,0.001101764976097118
-4.0288776776595805,0.0011294236223843186
-4.023551538661518,0.0011577039517280778
-4.018225399663455,0.0011866141382541745
-4.012899260665393,0.0012161619406281451
-4.007573121667331,0.0012463546823626437
-4.002246982669269,0.001277199233500892
-3.996920843671207,0.0013087019937547753
-3.991594704673145,0.0013408688771665428
-3.9862685656750823,0.0013737052983572758
-3.98094242667702,0.001407216160417498
-3.975616287678958,0.0014414058444860434
-3.970290148680896,0.0014762782010572725
-3.9649640096828334,0.0015118365430484004
-3.9596378706847712,0.0015480836406500005
-3.954311731686709,0.0015850217179765036
-3.948985592688647,0.0016226524515252534
-3.9436594536905845,0.0016609769704452639
-3.9383333146925223,0.0016999958586112092
-3.9330071756944602,0.0017397091584894324
-3.927681036696398,0.0017801163767787384
-3.9223548976983356,0.0018212164918015687
-3.9170287587002734,0.0018630079626158341
-3.9117026197022113,0.001905488739813669
-3.9063764807041492,0.0019486562779674685
-3.9010503417060867,0.0019925075496813154
-3.8957242027080246,0.002037039061200476
-3.8903980637099624,0.002082246869530579
-3.8850719247119003,0.0021281266010139827
-3.879745785713838,0.002174673471309778
-3.8744196467157757,0.002221882306721608
-3.8690935077177135,0.0022697475668167766
-3.8637673687196514,0.002318263368278832
-3.8584412297215893,0.002367423509935934
-3.8531150907235268,0.0024172214989052893
-3.8477889517254646,0.002467650577797645
-3.8424628127274025,0.002518703752921618
-3.8371366737293404,0.0025703738234309492
-3.831810534731278,0.0026226534113580058
-3.8264843957332157,0.0026755349924757754
-3.8211582567351536,0.002729010927932901
-3.8158321177370915,0.002783073496605358
-3.810505978739029,0.002837714928109414
-3.805179839740967,0.00289292743642066
-3.7998537007429047,0.0029487032540427005
-3.7945275617448426,0.0030050346666704655
-3.78920142274678,0.003061914048290343
-3.783875283748718,0.003119333896659464
-3.778549144750656,0.0031772868691057887
-3.7732230057525937,0.0032357658185858257
-3.767896866754531,0.003294763829937576
-3.762570727756469,0.003354274256262571
-3.757244588758407,0.0034142907553661103
-3.751918449760345,0.003474807326183958
-3.7465923107622823,0.0035358183451168618
-3.74126617176422,0.003597318602192784
-3.735940032766158,0.003659303336968664
-3.730613893768096,0.0037217682740816327
-3.7252877547700334,0.0037847096583518217
-3.7199616157719713,0.003848124289335092
-3.714635476773909,0.003912009555216485
-3.709309337775847,0.003976363465931797
-3.7039831987777845,0.004041184685396479
-3.6986570597797224,0.0041064725627169285
-3.6933309207816603,0.004172227162253586
-3.688004781783598,0.004238449292399776
-3.6826786427855356,0.004305140532934806
-3.6773525037874735,0.004372303260807141
-3.6720263647894114,0.004439940674198284
-3.6667002257913492,0.004508056814715153
-3.6613740867932867,0.00457665658755687
-3.6560479477952246,0.004645745779500297
-3.6507218087971625,0.004715331074547559
-3.6453956697991003,0.004785420067080472
-3.640069530801038,0.004856021272367249
-3.6347433918029757,0.004927144134270846
-3.6294172528049136,0.004998799030011193
-3.6240911138068514,0.00507099727184105
-3.618764974808789,0.005143751105499417
-3.613438835810727,0.005217073705316856
-3.6081126968126647,0.005290979165856205
-3.6027865578146026,0.0053654824899819
-3.59746041881654,0.0054405995732664525
-3.592134279818478,0.00551634718465345
-3.5868081408204158,0.005592742943314189
-3.5814820018223537,0.005669805291650558
-3.576155862824291,0.005747553464414639
-3.570829723826229,0.005826007453935992
-3.565503584828167,0.005905187971466028
-3.5601774458301048,0.005985116404671165
-3.554851306832042,0.0060658147713288455
-3.54952516783398,0.006147305669303315
-3.544199028835918,0.006229612222900344
-3.538872889837856,0.006312758025726782
-3.5335467508397937,0.0063967670802022964
-3.528220611841731,0.006481663733897783
-3.522894472843669,0.006567472612896936
-3.517568333845607,0.006654218552404221
-3.512242194847545,0.0067419265248443196
-3.5069160558494823,0.006830621565722872
-3.50158991685142,0.006920328697539828
-3.496263777853358,0.007011072852069438
-3.490937638855296,0.007102878791339489
-3.4856114998572334,0.0071957710276639025
-3.4802853608591713,0.0072897737430981675
-3.474959221861109,0.007384910708703923
-3.469633082863047,0.007481205204023165
-3.4643069438649845,0.0075786799371733785
-3.4589808048669224,0.007677356965986842
-3.4536546658688603,0.007777257620621734
-3.448328526870798,0.007878402428080938
-3.4430023878727356,0.007980811039074408
-3.4376762488746735,0.008084502157663218
-3.4323501098766114,0.008189493474118039
-3.4270239708785493,0.008295801601422294
-3.4216978318804867,0.008403442015839632
-3.4163716928824246,0.008512429001955684
-3.4110455538843625,0.008622775602590189
-3.4057194148863004,0.008734493573958495
-3.400393275888238,0.008847593346443729
-3.3950671368901757,0.008962083991317253
-3.3897409978921136,0.009077973193722551
-3.3844148588940515,0.009195267232209842
-3.379088719895989,0.009313970965080486
-3.373762580897927,0.009434087823768256
-3.3684364418998647,0.009555619813452508
-3.3631103029018026,0.009678567521062172
-3.35778416390374,0.009802930130793475
-3.352458024905678,0.009928705447226571
-3.347131885907616,0.01005588992608586
-3.3418057469095537,0.010184478712649492
-3.336479607911491,0.010314465687772466
-3.331153468913429,0.010445843521445147
-3.325827329915367,0.010578603733767983
-3.320501190917305,0.010712736763181477
-3.315175051919242,0.010848232041747695
-3.30984891292118,0.010985078077239044
-3.304522773923118,0.011123262541749585
-3.299196634925056,0.01126277236650395
-3.2938704959269933,0.011403593842500767
-3.288544356928931,0.01154571272659076
-3.283218217930869,0.011689114352553612
-3.277892078932807,0.01183378374670531
-3.2725659399347444,0.011979705747534174
-3.2672398009366823,0.012126865128838281
-3.26191366193862,0.012275246725805218
-3.256587522940558,0.012424835563456464
-3.2512613839424955,0.012575616986853042
-3.2459352449444334,0.012727576792442855
-3.2406091059463713,0.01288070135991495
-3.235282966948309,0.013034977783911973
-3.2299568279502466,0.0131903940049454
-3.2246306889521845,0.013346938938850163
-3.2193045499541224,0.013504602604114832
-3.2139784109560603,0.013663376246422786
-3.2086522719579977,0.013823252459745975
-3.2033261329599356,0.013984225303338496
-3.1979999939618735,0.014146290413990528
-3.1926738549638114,0.01430944511291541
-3.1873477159657493,0.01447368850666194
-3.1820215769676867,0.014639021581463608
-3.1766954379696246,0.014805447290461154
-3.1713692989715625,0.014972970633260287
-3.1660431599735004,0.015141598727318531
-3.160717020975438,0.015311340870683865
-3.1553908819773757,0.01548220859564612
-3.1500647429793136,0.015654215712897344
-3.1447386039812515,0.01582737834583684
-3.139412464983189,0.016001714954698938
-3.134086325985127,0.016177246350223787
-3.1287601869870647,0.01635399569663644
-3.1234340479890026,0.01653198850374698
-3.11810790899094,0.016711252608029054
-3.112781769992878,0.01689181814258571
-3.107455630994816,0.01707371749595807
-3.1021294919967537,0.017256985259782746
-3.096803352998691,0.01744165816535461
-3.091477214000629,0.017627775009198647
-3.086151075002567,0.01781537656780771
-3.080824936004505,0.018004505501749507
-3.0754987970064422,0.01819520624939511
-3.07017265800838,0.018387524910570052
-3.064846519010318,0.018581509120473905
-3.059520380012256,0.01877720791426068
-3.0541942410141933,0.01897467158271454
-3.0488681020161312,0.019173951519499147
-3.043541963018069,0.019375100060496312
-3.038215824020007,0.01957817031578985
-3.0328896850219444,0.01978321599488451
-3.0275635460238823,0.01999029122578312
-3.02223740702582,0.020199450368576267
-3.016911268027758,0.020410747824225653
-3.0115851290296956,0.020624237839247647
-3.0062589900316334,0.020839974307025947
-3.0009328510335713,0.021058010566499225
-2.995606712035509,0.021278399198988957
-2.9902805730374467,0.02150119182394065
-2.9849544340393845,0.021726438894365173
-2.9796282950413224,0.021954189492770337
-2.9743021560432603,0.022184491128376962
-2.9689760170451978,0.022417389536412494
-2.9636498780471356,0.02265292848027161
-2.9583237390490735,0.02289114955732724
-2.9529976000510114,0.023132092009163684
-2.947671461052949,0.023375792536991305
-2.9423453220548867,0.02362228512298633
-2.9370191830568246,0.023871600858278913
-2.9316930440587625,0.024123767778291588
-2.9263669050607,0.02437881070610535
-2.921040766062638,0.024636751104502724
-2.9157146270645757,0.02489760693730836
-2.9103884880665136,0.025161392540615155
-2.905062349068451,0.025428118504449707
-2.899736210070389,0.025697791565395832
-2.894410071072327,0.025970414510655373
-2.8890839320742647,0.026245986093988927
-2.883757793076202,0.0265245009639354
-2.87843165407814,0.02680594960466978
-2.873105515080078,0.02709031828981477
-2.867779376082016,0.02737758904947846
-2.8624532370839533,0.027667739650745996
-2.857127098085891,0.027960743591808536
-2.851800959087829,0.028256570109868758
-2.846474820089767,0.02855518420291603
-2.8411486810917044,0.028856546665421104
-2.8358225420936423,0.029160614137954902
-2.83049640309558,0.029467339170692497
-2.825170264097518,0.02977667030072013
-2.819844125099456,0.03008855214302093
-2.8145179861013934,0.030402925494972775
-2.8091918471033313,0.030719727454151354
-2.803865708105269,0.03103889154919326
-2.798539569107207,0.031360347883433906
-2.7932134301091445,0.031684023290998814
-2.7878872911110824,0.03200984150499238
-2.7825611521130202,0.03233772333739151
-2.777235013114958,0.03266758687022173
-2.7719088741168956,0.032999347657559644
-2.7665827351188335,0.0333329189378764
-2.7612565961207713,0.03366821185620989
-2.7559304571227092,0.03400513569562427
-2.7506043181246467,0.034343598117391246
-2.7452781791265846,0.034683505409303414
-2.7399520401285224,0.03502476274150709
-2.7346259011304603,0.035367274429220746
-2.7292997621323978,0.0357109442016848
-2.7239736231343357,0.0360556754766709
-2.7186474841362736,0.03640137163985993
-2.7133213451382114,0.036747936328382226
-2.707995206140149,0.03709527371779872
-2.7026690671420868,0.037443288811786345
-2.6973429281440247,0.037791887733778846
-2.6920167891459625,0.038140978019802055
-2.6866906501479,0.0384904689117304
-2.681364511149838,0.038840271650182834
-2.6760383721517758,0.039190299766265785
-2.6707122331537136,0.03954046937136292
-2.665386094155651,0.03989069944416489
-2.660059955157589,0.04024091211412445
-2.654733816159527,0.040591032940518815
-2.6494076771614647,0.04094099118629552
-2.644081538163402,0.0412907200858762
-2.63875539916534,0.04164015710608985
-2.633429260167278,0.04198924419940844
-2.628103121169216,0.04233792804865665
-2.6227769821711533,0.042686160302371996
-2.617450843173091,0.04303389779999502
-2.612124704175029,0.043381102786075314
-2.606798565176967,0.04372774311268763
-2.6014724261789044,0.044073792429261974
-2.5961462871808423,0.04441923035904498
-2.59082014818278,0.0447640426614231
-2.585494009184718,0.04510822137935777
-2.5801678701866555,0.04545176497120004
-2.5748417311885934,0.04579467842617814
-2.5695155921905313,0.04613697336287511
-2.564189453192469,0.04647866811004406
-2.5588633141944066,0.04681978776913995
-2.5535371751963445,0.04716036425798393
-2.5482110361982824,0.04750043633501441
-2.5428848972002203,0.04784004960362116
-2.5375587582021577,0.048179256496107756
-2.5322326192040956,0.048518116236873396
-2.5269064802060335,0.04885669478446328
-2.5215803412079714,0.04919506475219015
-2.516254202209909,0.04953330530709192
-2.5109280632118467,0.04987150204705496
-2.5056019242137846,0.050209746855998855
-2.5002757852157225,0.05054813773709012
-2.49494964621766,0.05088677862402573
-2.489623507219598,0.05122577917050494
-2.4842973682215357,0.05156525451808516
-2.4789712292234736,0.05190532504270228
-2.4736450902254115,0.05224611608021745
-2.468318951227349,0.05258775763143794
-2.462992812229287,0.05293038404714852
-2.4576666732312247,0.053274133693776066
-2.4523405342331626,0.053619148600399014
-2.4470143952351,0.05396557408790289
-2.441688256237038,0.05431355838117134
-2.4363621172389758,0.0546632522052896
-2.4310359782409137,0.055014808366825
-2.425709839242851,0.05536838132133272
-2.420383700244789,0.05572412672831975
-2.415057561246727,0.05608220099497871
-2.4097314222486648,0.05644276081007985
-2.404405283250602,0.05680596266948478
-2.39907914425254,0.05717196239481223
-2.393753005254478,0.05754091464685193
-2.388426866256416,0.05791297243538061
-2.3831007272583533,0.05828828662708888
-2.377774588260291,0.0586670054533739
-2.372448449262229,0.05904927401979326
-2.367122310264167,0.059435233819010835
-2.3617961712661044,0.05982502224908987
-2.3564700322680423,0.060218772139008156
-2.35114389326998,0.06061661128328124
-2.345817754271918,0.06101866198758106
-2.3404916152738555,0.0614250406272326
-2.3351654762757934,0.061835857220455384
-2.3298393372777313,0.06225121501819385
-2.324513198279669,0.06267121011234852
