Values,Density
-5.9248409678454985,3.105129197933376e-7
-5.9194976540573965,2.998948776811172e-7
-5.914154340269294,2.9244097982106254e-7
-5.908811026481192,2.880660732451634e-7
-5.90346771269309,2.8670918758577635e-7
-5.898124398904988,2.883329320857442e-7
-5.892781085116886,2.9292300501859714e-7
-5.887437771328784,3.004878101342534e-7
-5.882094457540682,3.11058177659973e-7
-5.87675114375258,3.246871867756962e-7
-5.871407829964478,3.414500851228741e-7
-5.866064516176376,3.61444302793279e-7
-5.860721202388275,3.8478955763365796e-7
-5.855377888600173,4.1162804717553847e-7
-5.850034574812071,4.421247254138283e-7
-5.844691261023969,4.764676600765849e-7
-5.839347947235867,5.148684669720183e-7
-5.834004633447765,5.575628178322578e-7
-5.828661319659663,6.048110181289257e-7
-5.823318005871561,6.568986510302466e-7
-5.8179746920834585,7.141372830588022e-7
-5.8126313782953565,7.768652285355948e-7
-5.807288064507254,8.454483667597046e-7
-5.801944750719152,9.202810094255387e-7
-5.79660143693105,1.0017868112277561e-6
-5.791258123142948,1.0904197214611777e-6
-5.785914809354846,1.1866649686220754e-6
-5.780571495566744,1.2910400746246609e-6
-5.775228181778642,1.4040958914440793e-6
-5.76988486799054,1.526417654690304e-6
-5.764541554202438,1.6586260477846615e-6
-5.759198240414336,1.8013782689119129e-6
-5.753854926626234,1.955369094881927e-6
-5.748511612838132,2.121331933680956e-6
-5.74316829905003,2.3000398573901765e-6
-5.737824985261929,2.4923066078335124e-6
-5.732481671473827,2.698987566196985e-6
-5.727138357685725,2.9209806767221264e-6
-5.721795043897623,3.1592273164616352e-6
-5.716451730109521,3.414713099528406e-6
-5.7111084163214185,3.6884686073143658e-6
-5.7057651025333165,3.981570033154483e-6
-5.700421788745214,4.295139730857607e-6
-5.695078474957112,4.630346655652359e-6
-5.68973516116901,4.988406687642805e-6
-5.684391847380908,5.370582823926474e-6
-5.679048533592806,5.778185229205791e-6
-5.673705219804704,6.212571132709933e-6
-5.668361906016602,6.675144559388155e-6
-5.6630185922285,7.167355882365008e-6
-5.657675278440398,7.690701186673261e-6
-5.652331964652296,8.246721430342496e-6
-5.646988650864194,8.837001392269367e-6
-5.641645337076092,9.463168395371785e-6
-5.63630202328799,1.0126890792563903e-5
-5.630958709499888,1.0829876206762054e-5
-5.625615395711786,1.1573869512729144e-5
-5.620272081923684,1.2360650552144595e-5
-5.614928768135582,1.319203157243605e-5
-5.609585454347481,1.4069854380900464e-5
-5.6042421405593785,1.4995987206904184e-5
-5.5988988267712765,1.5972321265544064e-5
-5.593555512983174,1.7000767017404973e-5
-5.588212199195072,1.8083250119846177e-5
-5.58286888540697,1.9221707066701885e-5
-5.577525571618868,2.0418080515631834e-5
-5.572182257830766,2.1674314301488654e-5
-5.566838944042664,2.29923481378895e-5
-5.561495630254562,2.4374112010023402e-5
-5.55615231646646,2.5821520262462108e-5
-5.550809002678358,2.733646538972609e-5
-5.545465688890256,2.8920811537000782e-5
-5.540122375102154,3.057638772149124e-5
-5.534779061314052,3.2304980787168855e-5
-5.52943574752595,3.410832810668736e-5
-5.524092433737848,3.598811004765397e-5
-5.518749119949746,3.794594222130722e-5
-5.513405806161644,3.998336753464199e-5
-5.508062492373542,4.210184806896153e-5
-5.50271917858544,4.4302756810202584e-5
-5.497375864797338,4.6587369258149075e-5
-5.492032551009236,4.895685494343306e-5
-5.486689237221134,5.14122688851093e-5
-5.481345923433032,5.395454302099638e-5
-5.47600260964493,5.658447764692737e-5
-5.470659295856828,5.9302732902227415e-5
-5.465315982068726,6.210982034021012e-5
-5.459972668280624,6.500609462423146e-5
-5.454629354492522,6.799174539165627e-5
-5.44928604070442,7.106678932957376e-5
-5.443942726916318,7.423106250573422e-5
-5.438599413128216,7.748421300117665e-5
-5.433256099340114,8.082569389086455e-5
-5.427912785552012,8.425475661827213e-5
-5.42256947176391,8.777044481251932e-5
-5.417226157975808,9.137158859356953e-5
-5.411882844187706,9.505679941379866e-5
-5.406539530399604,9.882446548280938e-5
-5.401196216611502,0.00010267274781980765
-5.3958529028234,0.00010659957697969208
-5.390509589035298,0.00011060265049728582
-5.385166275247196,0.00011467943108901119
-5.3798229614590936,0.00011882714565606897
-5.3744796476709915,0.00012304278512365388
-5.3691363338828895,0.00012732310515465445
-5.363793020094788,0.000131664627769517
-5.358449706306686,0.00013606364390220463
-5.353106392518584,0.0001405162169201904
-5.347763078730482,0.00014501818713048148
-5.34241976494238,0.0001495651772921297
-5.337076451154278,0.00015415259915061222
-5.331733137366176,0.00015877566100460164
-5.326389823578074,0.0001634293763136726
-5.321046509789972,0.00016810857334769932
-5.31570319600187,0.00017280790587594075
-5.310359882213768,0.00017752186488923134
-5.305016568425666,0.00018224479134191195
-5.299673254637564,0.00018697088989655213
-5.294329940849462,0.0001916942436481859
-5.28898662706136,0.00019640882980150216
-5.283643313273258,0.00020110853626573687
-5.278299999485156,0.0002057871791314378
-5.272956685697054,0.00021043852098364194
-5.2676133719089515,0.00021505629000357837
-5.2622700581208495,0.00021963419980593896
-5.256926744332747,0.00022416596995239284
-5.251583430544645,0.00022864534707939428
-5.246240116756543,0.00023306612657172932
-5.240896802968442,0.0002374221747112673
-5.23555348918034,0.00024170745122428436
-5.230210175392238,0.00024591603214909816
-5.224866861604136,0.0002500421329402827
-5.219523547816034,0.0002540801317248119
-5.214180234027932,0.00025802459262031993
-5.20883692023983,0.00026187028902692824
-5.203493606451728,0.0002656122267975479
-5.198150292663626,0.0002692456671942421
-5.192806978875524,0.0002727661495351523
-5.187463665087422,0.00027616951343483256
-5.18212035129932,0.0002794519205439293
-5.176777037511218,0.00028260987569049545
-5.171433723723116,0.0002856402473288104
-5.166090409935014,0.00028854028720071145
-5.1607470961469115,0.0002913076491180451
-5.1554037823588095,0.0002939404067745857
-5.150060468570707,0.0002964370704999636
-5.144717154782605,0.00029879660287005297
-5.139373840994503,0.00030101843309276663
-5.134030527206401,0.00030310247008932464
-5.128687213418299,0.00030504911419903386
-5.123343899630197,0.00030685926743600697
-5.118000585842095,0.0003085343422339192
-5.112657272053994,0.00031007626861874124
-5.107313958265892,0.0003114874997551774
-5.10197064447779,0.00031277101581784865
-5.096627330689688,0.000313930326144754
-5.091284016901586,0.0003149694696362882
-5.085940703113484,0.0003158930133694386
-5.080597389325382,0.0003167060494037779
-5.07525407553728,0.00031741418976167016
-5.069910761749178,0.0003180235595726458
-5.064567447961076,0.0003185407883791319
-5.059224134172974,0.0003189729996054165
-5.0538808203848715,0.0003193277982013465
-5.0485375065967695,0.000319613256478387
-5.043194192808667,0.00031983789816002195
-5.037850879020565,0.00032001068068042426
-5.032507565232463,0.00032014097576624906
-5.027164251444361,0.00032023854834789187
-5.021820937656259,0.0003203135338494256
-5.016477623868157,0.00032037641391502447
-5.011134310080055,0.00032043799063532705
-5.005790996291953,0.0003205093593422956
-5.000447682503851,0.00032060188004762527
-4.995104368715749,0.00032072714760529586
-4.989761054927648,0.0003208969606840993
-4.984417741139546,0.00032112328964017944
-4.979074427351444,0.0003214182433857078
-4.973731113563342,0.0003217940353528806
-4.96838779977524,0.00032226294865779145
-4.963044485987138,0.0003228373005718585
-4.957701172199036,0.0003235294064117926
-4.952357858410934,0.0003243515429628696
-4.9470145446228315,0.00032531591155341225
-4.9416712308347295,0.00032643460089922666
-4.936327917046627,0.0003277195498416763
-4.930984603258525,0.00032918251010166655
-4.925641289470423,0.0003308350091764424
-4.920297975682321,0.00033268831350483086
-4.914954661894219,0.0003347533920280109
-4.909611348106117,0.0003370408802749938
-4.904268034318015,0.0003395610450982224
-4.898924720529913,0.00034232375018814973
-4.893581406741811,0.0003453384224929787
-4.888238092953709,0.00034861401966853126
-4.882894779165607,0.00035215899868189585
-4.877551465377505,0.00035598128569140977
-4.872208151589403,0.00036008824732119277
-4.866864837801302,0.00036448666344803676
-4.8615215240132,0.0003691827016129613
-4.856178210225098,0.00037418189316811706
-4.850834896436996,0.00037948911126377965
-4.845491582648894,0.00038510855077735634
-4.8401482688607915,0.000391043710280585
-4.8348049550726895,0.00039729737613512436
-4.829461641284587,0.0004038716088030185
-4.824118327496485,0.0004107677314490986
-4.818775013708383,0.0004179863209095823
-4.813431699920281,0.00042552720109058015
-4.808088386132179,0.00043338943885474004
-4.802745072344077,0.0004415713424457887
-4.797401758555975,0.0004500704624928707
-4.792058444767873,0.0004588835956263783
-4.786715130979771,0.00046800679073064413
-4.781371817191669,0.00047743535784653887
-4.776028503403567,0.0004871638797295831
-4.770685189615465,0.000497186226057069
-4.765341875827363,0.0005074955702706538
-4.759998562039261,0.0005180844090257423
-4.754655248251159,0.0005289445842128863
-4.749311934463057,0.000540067307502428
-4.743968620674956,0.0005514431873538117
-4.738625306886854,0.000563062258420205
-4.7332819930987515,0.0005749140132669008
-4.7279386793106495,0.000586987436311897
-4.722595365522547,0.0005992710398859333
-4.717252051734445,0.0006117529022976326
-4.711908737946343,0.0006244207077797381
-4.706565424158241,0.0006372617881817144
-4.701222110370139,0.0006502631662630015
-4.695878796582037,0.0006634116004336776
-4.690535482793935,0.0006766936307776271
-4.685192169005833,0.0006900956261862712
-4.679848855217731,0.0007036038324222775
-4.674505541429629,0.00071720442092469
-4.669162227641527,0.0007308835381613435
-4.663818913853425,0.0007446273553275186
-4.658475600065323,0.0007584221181846304
-4.653132286277221,0.0007722541968286367
-4.647788972489119,0.0007861101351758701
-4.642445658701017,0.0007999766999488046
-4.637102344912915,0.0008138409289456042
-4.631759031124813,0.0008276901783762017
-4.626415717336711,0.0008415121690481045
-4.621072403548609,0.000855295031188006
-4.615729089760507,0.0008690273476879631
-4.610385775972405,0.0008826981955691385
-4.605042462184303,0.000896297185462646
-4.599699148396201,0.0009098144989125832
-4.594355834608099,0.0009232409233151939
-4.589012520819997,0.0009365678843169661
-4.583669207031895,0.0009497874755039978
-4.578325893243793,0.0009628924852281284
-4.572982579455691,0.0009758764204251882
-4.567639265667589,0.0009887335272972982
-4.562295951879487,0.0010014588087419347
-4.556952638091385,0.001014048038428765
-4.551609324303283,0.0010264977714405524
-4.546266010515181,0.0010388053514100047
-4.540922696727079,0.0010509689141031766
-4.535579382938977,0.001062987387418602
-4.530236069150875,0.0010748604877877815
-4.524892755362773,0.001086588712984005
-4.519549441574671,0.0010981733313633517
-4.514206127786569,0.0011096163675825086
-4.508862813998467,0.0011209205848568267
-4.5035195002103645,0.0011320894638402767
-4.4981761864222625,0.0011431271782295018
-4.492832872634161,0.0011540385672112572
-4.487489558846059,0.00116482910489132
-4.482146245057957,0.001175504866859682
-4.476802931269855,0.0011860724940650808
-4.471459617481753,0.0011965391541856568
-4.466116303693651,0.001206912500699355
-4.460772989905549,0.0012172006298700653
-4.455429676117447,0.0012274120358799394
-4.450086362329345,0.0012375555643477057
-4.444743048541243,0.0012476403644847635
-4.439399734753141,0.001257675840148278
-4.434056420965039,0.0012676716000585933
-4.428713107176937,0.0012776374074527992
-4.423369793388835,0.0012875831294522151
-4.418026479600733,0.0012975186864216323
-4.412683165812631,0.0013074540016004615
-4.407339852024529,0.001317398951284983
-4.401996538236427,0.0013273633158367919
-4.3966532244483245,0.001337356731789932
-4.3913099106602225,0.001347388645322248
-4.38596659687212,0.0013574682673484044
-4.380623283084018,0.0013676045304841233
-4.375279969295916,0.0013778060481187127
-4.369936655507815,0.0013880810758217371
-4.364593341719713,0.0013984374752959682
-4.359250027931611,0.0014088826810723515
-4.353906714143509,0.0014194236701288512
-4.348563400355407,0.0014300669345951658
-4.343220086567305,0.001440818457688349
-4.337876772779203,0.001451683693004975
-4.332533458991101,0.00146266754727482
-4.327190145202999,0.0014737743666608516
-4.321846831414897,0.0014850079266696056
-4.316503517626795,0.0014963714257132214
-4.311160203838693,0.0015078674823439837
-4.305816890050591,0.0015194981361604
-4.300473576262489,0.0015312648523615503
-4.295130262474387,0.0015431685299051173
-4.2897869486862845,0.0015552095132050532
-4.2844436348981825,0.0015673876072819955
-4.27910032111008,0.0015797020962619972
-4.273757007321978,0.0015921517650990015
-4.268413693533876,0.0016047349243786257
-4.263070379745774,0.0016174494380444687
-4.257727065957672,0.0016302927538715886
-4.25238375216957,0.0016432619364980978
-4.247040438381468,0.0016563537028121307
-4.241697124593367,0.0016695644594798206
-4.236353810805265,0.0016828903423902683
-4.231010497017163,0.0016963272577840416
-4.225667183229061,0.0017098709248259958
-4.220323869440959,0.001723516919376146
-4.214980555652857,0.0017372607187106995
-4.209637241864755,0.001751097746942043
-4.204293928076653,0.0017650234208867292
-4.198950614288551,0.001779033196131416
-4.193607300500449,0.0017931226130513643
-4.188263986712347,0.0018072873425379957
-4.1829206729242445,0.001821523231201442
-4.1775773591361425,0.0018358263458186017
-4.17223404534804,0.001850193016808891
-4.166890731559938,0.0018646198805285091
-4.161547417771836,0.0018791039201861703
-4.156204103983734,0.001893642505196684
-4.150860790195632,0.0019082334288009761
-4.14551747640753,0.0019228749437974132
-4.140174162619428,0.0019375657962428482
-4.134830848831326,0.0019523052570000442
-4.129487535043224,0.001967093151021806
-4.124144221255122,0.0019819298842815025
-4.118800907467021,0.0019968164682749277
-4.113457593678919,0.0020117545420369753
-4.108114279890817,0.002026746391631428
-4.102770966102715,0.0020417949670922877
-4.097427652314613,0.002056903896808661
-4.092084338526511,0.0020720774993618976
-4.086741024738409,0.0020873207928410083
-4.081397710950307,0.0021026395016748613
-4.0760543971622045,0.002118040061034745
-4.0707110833741025,0.002133529618874086
-4.065367769586,0.0021491160356840663
-4.060024455797898,0.002164807882054507
-4.054681142009796,0.0021806144341402697
-4.049337828221694,0.0021965456671413433
-4.043994514433592,0.00221261224691199
-4.03865120064549,0.0022288255198223868
-4.033307886857388,0.002245197500998306
-4.027964573069286,0.0022617408610701613
-4.022621259281184,0.002278468911564576
-4.017277945493082,0.002295395589071242
-4.01193463170498,0.0023125354383195934
-4.006591317916878,0.002329903594296849
-4.001248004128776,0.002347515763536069
-3.9959046903406743,0.002365388204700388
-3.9905613765525723,0.0023835377085826004
-3.98521806276447,0.002401981577635319
-3.979874748976368,0.002420737605138258
-3.974531435188266,0.0024398240541028925
-3.969188121400164,0.0024592596360047923
-3.9638448076120625,0.002479063489426711
-3.9585014938239604,0.0024992551586843943
-3.9531581800358584,0.0025198545724971558
-3.9478148662477563,0.0025408820227570406
-3.9424715524596543,0.00256235814343651
-3.9371282386715523,0.0025843038896680853
-3.93178492488345,0.002606740517015805
-3.926441611095348,0.0026296895609501693
-3.921098297307246,0.002653172816527452
-3.915754983519144,0.0026772123182660645
-3.910411669731042,0.0027018303202017736
-3.9050683559429404,0.0027270492760981153
-3.8997250421548384,0.0027528918197781277
-3.8943817283667364,0.002779380745539444
-3.8890384145786343,0.0028065389886065342
-3.8836951007905323,0.0028343896055718198
-3.87835178700243,0.0028629557547713187
-3.873008473214328,0.002892260676538864
-3.867665159426226,0.0029223276732820123
-3.862321845638124,0.002953180089321168
-3.856978531850022,0.0029848412904343105
-3.85163521806192,0.0030173346430533016
-3.846291904273818,0.003050683493058197
-3.8409485904857164,0.00308491114412264
-3.8356052766976143,0.0031200408355667175
-3.8302619629095123,0.003156095719681576
-3.82491864912141,0.0031930988384961424
-3.819575335333308,0.00323107309996562
-3.814232021545206,0.0032700412535695486
-3.808888707757104,0.003310025865317562
-3.803545393969002,0.003351049292172035
-3.7982020801809,0.003393133655905923
-3.792858766392798,0.0034363008164288097
-3.787515452604696,0.003480572344622306
-3.782172138816594,0.0035259694947413177
-3.7768288250284923,0.0035725131764471323
-3.77148551124039,0.0036202239265530813
-3.766142197452288,0.0036691218805720432
-3.760798883664186,0.0037192267441703442
-3.755455569876084,0.003770557764640879
-3.750112256087982,0.003823133702520005
-3.74476894229988,0.003876972803482936
-3.739425628511778,0.003932092770660521
-3.734082314723676,0.003988510737529203
-3.728739000935574,0.004046243241532056
-3.723395687147472,0.0041053061985961165
-3.71805237335937,0.004165714878713882
-3.712709059571268,0.004227483882761781
-3.707365745783166,0.00429062712072956
-3.702022431995064,0.004355157791534845
-3.696679118206962,0.0044210883645961485
-3.69133580441886,0.004488430563334504
-3.685992490630758,0.004557195350769818
-3.680649176842656,0.004627392917372705
-3.675305863054554,0.004699032671322484
-3.669962549266452,0.004772123231316205
-3.66461923547835,0.004846672422060126
-3.6592759216902477,0.004922687272563866
-3.653932607902146,0.005000174017342651
-3.648589294114044,0.005079138100619364
-3.643245980325942,0.005159584183600062
-3.63790266653784,0.0052415161548788405
-3.632559352749738,0.005324937144010219
-3.627216038961636,0.0054098495382652306
-3.621872725173534,0.0054962550025684145
-3.616529411385432,0.005584154502590137
-3.61118609759733,0.005673548330945896
-3.6058427838092277,0.005764436136434046
-3.6004994700211257,0.005856816956216666
-3.5951561562330236,0.00595068925082929
-3.589812842444922,0.006046050941878645
-3.58446952865682,0.006142899452267569
-3.579126214868718,0.006241231748761986
-3.573782901080616,0.006341044386694906
-3.568439587292514,0.006442333556579673
-3.563096273504412,0.006545095132386722
-3.55775295971631,0.006649324721217664
-3.5524096459282077,0.006755017714094268
-3.5470663321401057,0.006862169337563553
-3.5417230183520036,0.006970774705805866
-3.5363797045639016,0.0070808288729205665
-3.5310363907758,0.007192326885053186
-3.525693076987698,0.007305263832019713
-3.520349763199596,0.007419634898077447
-3.515006449411494,0.007535435411487126
-3.509663135623392,0.007652660892510883
-3.50431982183529,0.007771307099489706
-3.4989765080471877,0.007891370072648847
-3.4936331942590857,0.008012846175285023
-3.4882898804709837,0.008135732131997128
-3.4829465666828816,0.008260025063634505
-3.4776032528947796,0.008385722518649493
-3.4722599391066775,0.008512822500557474
-3.466916625318576,0.008641323491226115
-3.461573311530474,0.008771224469737379
-3.456229997742372,0.008902524926587958
-3.45088668395427,0.009035224873021367
-3.4455433701661677,0.009169324845310599
-3.4402000563780657,0.009304825903842113
-3.4348567425899637,0.009441729626881959
-3.4295134288018616,0.009580038098939819
-3.4241701150137596,0.009719753893679257
-3.4188268012256575,0.009860880051361452
-3.4134834874375555,0.010003420050844536
-3.4081401736494534,0.010147377776199586
-3.402796859861352,0.010292757478043273
-3.39745354607325,0.010439563729725508
-3.3921102322851477,0.010587801378550839
-3.3867669184970457,0.010737475492248964
-3.3814236047089437,0.0108885913009522
-3.3760802909208416,0.011041154134971486
-3.3707369771327396,0.011195169358702984
-3.3653936633446375,0.01135064230103185
-3.3600503495565355,0.01150757818263376
-3.3547070357684334,0.011665982040609112
-3.3493637219803314,0.011825858650913849
-3.34402040819223,0.011987212449081186
-3.3386770944041277,0.012150047449753544
-3.3333337806160257,0.012314367165567705
-3.3279904668279237,0.012480174525957566
-3.3226471530398216,0.012647471796455888
-3.3173038392517196,0.012816260499090106
-3.3119605254636175,0.012986541334480121
