Values,Density
-5.133954502908907,1.9378135690528708e-7
-5.128579117284808,1.9621437633010608e-7
-5.123203731660709,2.0072776812929405e-7
-5.117828346036611,2.0735924599613043e-7
-5.112452960412512,2.1616289250236953e-7
-5.107077574788414,2.2720944001242138e-7
-5.101702189164315,2.405866221799613e-7
-5.096326803540216,2.563995994964152e-7
-5.090951417916118,2.7477145780885337e-7
-5.085576032292019,2.958437795297364e-7
-5.080200646667921,3.1977728973120456e-7
-5.074825261043822,3.46752574764686e-7
-5.069449875419723,3.769708758483148e-7
-5.064074489795624,4.1065495598457957e-7
-5.058699104171526,4.480500407355592e-7
-5.053323718547428,4.894248325504336e-7
-5.047948332923329,5.350725984232252e-7
-5.04257294729923,5.853123300203489e-7
-5.037197561675131,6.404899757228577e-7
-5.031822176051033,7.009797442503185e-7
-5.0264467904269345,7.671854776181153e-7
-5.021071404802836,8.395420931783804e-7
-5.015696019178737,9.185170930237074e-7
-5.010320633554638,1.0046121386164675e-6
-5.00494524793054,1.098364688173481e-6
-4.9995698623064415,1.2003496962509352e-6
-4.994194476682343,1.3111813697286312e-6
-4.988819091058244,1.4315149806098937e-6
-4.983443705434145,1.5620487293366292e-6
-4.978068319810047,1.7035256560382628e-6
-4.9726929341859485,1.8567355959397958e-6
-4.96731754856185,2.0225171735999137e-6
-4.961942162937751,2.20175983011231e-6
-4.956566777313652,2.3954058800787666e-6
-4.951191391689554,2.6044525899115295e-6
-4.9458160060654555,2.829954272368356e-6
-4.940440620441357,3.0730243900734325e-6
-4.935065234817258,3.334837660890974e-6
-4.929689849193159,3.616632156370342e-6
-4.92431446356906,3.919711386122116e-6
-4.918939077944962,4.2454463581634815e-6
-4.913563692320864,4.595277606896705e-6
-4.908188306696765,4.970717177965427e-6
-4.902812921072666,5.373350560606508e-6
-4.897437535448567,5.804838556487148e-6
-4.892062149824469,6.266919074017843e-6
-4.886686764200371,6.761408836587074e-6
-4.881311378576272,7.290204993262023e-6
-4.875935992952173,7.855286619807937e-6
-4.870560607328074,8.458716097694413e-6
-4.865185221703976,9.102640358298053e-6
-4.859809836079878,9.789291980184453e-6
-4.854434450455779,1.0520990125946483e-5
-4.84905906483168,1.1300141306356919e-5
-4.843683679207581,1.2129239958388709e-5
-4.838308293583483,1.301086882498411e-5
-4.832932907959385,1.3947699122869237e-5
-4.827557522335286,1.4942490487107954e-5
-4.822182136711187,1.599809067932747e-5
-4.816806751087088,1.7117435048379787e-5
-4.81143136546299,1.8303545731546654e-5
-4.8060559798388915,1.9559530585826733e-5
-4.800680594214793,2.0888581838469054e-5
-4.795305208590694,2.2293974448608228e-5
-4.789929822966595,2.377906416903882e-5
-4.784554437342496,2.5347285302019205e-5
-4.7791790517183985,2.700214814153369e-5
-4.7738036660943,2.874723609533683e-5
-4.768428280470201,3.058620248323936e-5
-4.763052894846102,3.252276700682795e-5
-4.757677509222003,3.4560711888924e-5
-4.7523021235979055,3.6703877680841976e-5
-4.746926737973807,3.895615873913787e-5
-4.741551352349708,4.132149837180084e-5
-4.736175966725609,4.3803883658839055e-5
-4.73080058110151,4.640733995051917e-5
-4.7254251954774125,4.9135925051537604e-5
-4.720049809853314,5.1993723096952285e-5
-4.714674424229215,5.498483813163105e-5
-4.709299038605116,5.811338740252872e-5
-4.703923652981017,6.138349437948866e-5
-4.698548267356919,6.47992815162781e-5
-4.693172881732821,6.836486277095842e-5
-4.687797496108722,7.208433590139528e-5
-4.682422110484623,7.596177455745229e-5
-4.677046724860524,8.000122018961622e-5
-4.671671339236426,8.420667379820113e-5
-4.666295953612328,8.858208754581459e-5
-4.660920567988229,9.313135625971247e-5
-4.65554518236413,9.785830885180626e-5
-4.650169796740031,0.00010276669968155988
-4.6447944111159325,0.00010786019989466288
-4.639419025491835,0.00011314238876529784
-4.634043639867736,0.00011861674507362627
-4.628668254243637,0.00012428663855173008
-4.623292868619538,0.00013015532142866826
-4.6179174829954395,0.0001362259201095426
-4.612542097371342,0.00014250142702076918
-4.607166711747243,0.0001489846926564075
-4.601791326123144,0.00015567841785799237
-4.596415940499045,0.00016258514636336395
-4.5910405548749464,0.00016970725765649668
-4.5856651692508485,0.00017704696015191645
-4.58028978362675,0.00018460628474734758
-4.574914398002651,0.00019238707877463138
-4.569539012378552,0.00020039100038277483
-4.564163626754453,0.00020861951338004697
-4.5587882411303555,0.0002170738825678746
-4.553412855506257,0.00022575516959150513
-4.548037469882158,0.00023466422933632845
-4.542662084258059,0.00024380170689336164
-4.53728669863396,0.0002531680351186491
-4.5319113130098625,0.000262763432808847
-4.526535927385764,0.0002725879035117059
-4.521160541761665,0.000282641234992392
-4.515785156137566,0.00029292299937009117
-4.510409770513467,0.0003034325539412741
-4.505034384889369,0.0003141690427013368
-4.499658999265271,0.00032513139857688264
-4.494283613641172,0.0003363183463756022
-4.488908228017073,0.0003477284064623658
-4.483532842392974,0.00035935989916581305
-4.4781574567688756,0.0003712109499176223
-4.472782071144778,0.0003832794951268738
-4.467406685520679,0.00039556328878694383
-4.46203129989658,0.00040805990981342653
-4.456655914272481,0.00042076677010727606
-4.4512805286483825,0.0004336811233377723
-4.445905143024285,0.0004468000744358488
-4.440529757400186,0.00046012058978951893
-4.435154371776087,0.0004736395081284626
-4.429778986151988,0.00048735355208558845
-4.4244036005278895,0.000501259340421752
-4.419028214903792,0.0005153534008966072
-4.413652829279693,0.000529632183769873
-4.408277443655594,0.0005440920759140766
-4.402902058031495,0.0005587294155195398
-4.3975266724073965,0.00057354050737176
-4.392151286783298,0.0005885216386785561
-4.3867759011592,0.0006036690954257795
-4.381400515535101,0.0006189791792375679
-4.376025129911002,0.0006344482247170914
-4.3706497442869034,0.0006500726172423248
-4.365274358662805,0.0006658488111915065
-4.359898973038707,0.0006817733485710332
-4.354523587414608,0.0006978428780179992
-4.349148201790509,0.000714054174149225
-4.34377281616641,0.0007304041572275786
-4.338397430542312,0.0007468899131145186
-4.333022044918214,0.000763508713477995
-4.327646659294115,0.0007802580362242691
-4.322271273670016,0.0007971355861188349
-4.316895888045917,0.0008141393155633447
-4.311520502421819,0.0008312674454924104
-4.306145116797721,0.0008485184863534084
-4.300769731173622,0.0008658912591311581
-4.295394345549523,0.0008833849163782589
-4.290018959925424,0.0009009989632090161
-4.284643574301326,0.0009187332782154348
-4.279268188677228,0.0009365881342602612
-4.273892803053129,0.0009545642191005135
-4.26851741742903,0.0009726626557949869
-4.263142031804931,0.0009908850228444663
-4.257766646180833,0.0010092333740132596
-4.252391260556734,0.0010277102577792366
-4.247015874932636,0.001046318736355533
-4.241640489308537,0.0010650624042262066
-4.236265103684438,0.0010839454061370782
-4.2308897180603395,0.0011029724544784243
-4.225514332436241,0.0011221488459968627
-4.220138946812143,0.0011414804777698413
-4.214763561188044,0.0011609738623757672
-4.209388175563945,0.0011806361421895575
-4.2040127899398465,0.001200475102733474
-4.198637404315748,0.0012204991850094105
-4.19326201869165,0.0012407174967397488
-4.187886633067551,0.0012611398224414185
-4.182511247443452,0.001281776632256263
-4.1771358618193535,0.0013026390894624422
-4.171760476195255,0.0013237390565881482
-4.166385090571157,0.00134508910005127
-4.161009704947058,0.0013667024932473015
-4.155634319322959,0.001388593218009191
-4.1502589336988605,0.001410775964362742
-4.144883548074762,0.0014332661285035193
-4.139508162450664,0.001456079808921762
-4.134132776826565,0.001479233800604652
-4.128757391202466,0.0015027455872473443
-4.123382005578367,0.0015266333314070332
-4.118006619954269,0.0015509158625380479
-4.11263123433017,0.001575612662849106
-4.107255848706072,0.0016007438509292801
-4.101880463081973,0.0016263301630925937
-4.096505077457874,0.001652392932397051
-4.091129691833776,0.0016789540653005357
-4.085754306209677,0.0017060360159197492
-4.080378920585579,0.0017336617578677486
-4.07500353496148,0.001761854753650597
-4.069628149337381,0.0017906389216125196
-4.064252763713283,0.0018200386004252611
-4.058877378089184,0.0018500785111280407
-4.053501992465086,0.00188078371673037
-4.048126606840987,0.0019121795794011485
-4.042751221216888,0.0019442917152757144
-4.03737583559279,0.0019771459469232235
-4.032000449968691,0.002010768253523955
-4.026625064344593,0.002045184718820467
-4.021249678720494,0.002080421476912536
-4.015874293096395,0.0021165046559794252
-4.0104989074722965,0.002153460320021422
-4.005123521848198,0.0021913144087242556
-3.9997481362240994,0.002230092675560666
-3.9943727506000006,0.00226982062425311
-3.9889973649759023,0.0023105234437327885
-3.9836219793518035,0.002352225941740574
-3.978246593727705,0.002394952477224748
-3.9728712081036064,0.002438726891701118
-3.9674958224795076,0.0024835724397513567
-3.9621204368554093,0.0025295117188424213
-3.9567450512313105,0.002576566598661869
-3.9513696656072117,0.002624758150170537
-3.9459942799831134,0.002674106574581437
-3.9406188943590146,0.002724631132484452
-3.9352435087349162,0.00277635007333946
-3.9298681231108175,0.002829280565569827
-3.9244927374867187,0.0028834386274926016
-3.9191173518626203,0.0029388390593268476
-3.9137419662385216,0.0029954953765267515
-3.908366580614423,0.0030534197446886006
-3.9029911949903244,0.00311262291628436
-3.8976158093662256,0.003173114169476028
-3.8922404237421273,0.0032349012492667445
-3.8868650381180285,0.0032979903112436253
-3.8814896524939297,0.0033623858681687234
-3.8761142668698314,0.0034280907396703336
-3.8707388812457326,0.0034951060052874072
-3.8653634956216343,0.0035634309611132994
-3.8599881099975355,0.0036330630802838895
-3.8546127243734367,0.0037039979775466483
-3.8492373387493384,0.0037762293781438937
-3.8438619531252396,0.003849749091234256
-3.8384865675011413,0.003924546988069523
-3.8331111818770425,0.004000610985132998
-3.8277357962529437,0.004077927032438981
-3.8223604106288454,0.0041564791071778615
-3.8169850250047466,0.004236249212882237
-3.811609639380648,0.0043172173842764144
-3.8062342537565494,0.004399361697956447
-3.8008588681324507,0.004482658289035504
-3.7954834825083523,0.0045670813738722185
-3.7901080968842535,0.0046526032789848334
-3.7847327112601548,0.004739194476236521
-3.7793573256360564,0.004826823624359773
-3.7739819400119576,0.004915457616869311
-3.7686065543878593,0.005005061636394418
-3.7632311687637605,0.0050955992154419864
-3.7578557831396617,0.00518703230358049
-3.7524803975155634,0.005279321341016201
-3.7471050118914646,0.0053724253385103
-3.741729626267366,0.005466301963564133
-3.7363542406432675,0.005560907632779064
-3.7309788550191687,0.005656197610274228
-3.7256034693950704,0.00575212611202194
-3.7202280837709716,0.0058486464159404235
-3.714852698146873,0.005945710977558187
-3.7094773125227745,0.0060432715510420325
-3.7041019268986757,0.006141279315359094
-3.6987265412745773,0.006239685005317949
-3.6933511556504786,0.00633843904721367
-3.6879757700263798,0.006437491698776735
-3.6826003844022814,0.006536793193105368
-3.6772249987781827,0.00663629388623772
-3.671849613154084,0.0067359444079994725
-3.6664742275299855,0.006835695815741076
-3.6610988419058867,0.006935499750559461
-3.6557234562817884,0.007035308595577987
-3.6503480706576896,0.007135075635841623
-3.644972685033591,0.007234755219363891
-3.6395972994094925,0.007334302918848694
-3.6342219137853937,0.007433675693591149
-3.6288465281612954,0.007532832051048255
-3.6234711425371966,0.007631732207559136
-3.618095756913098,0.007730338247677699
-3.6127203712889995,0.00782861428157617
-3.6073449856649007,0.007926526599964186
-3.601969600040802,0.008024043825964437
-3.5965942144167036,0.008121137063378728
-3.591218828792605,0.008217780040775677
-3.5858434431685065,0.0083139492508288
-3.5804680575444077,0.008409624084336521
-3.575092671920309,0.008504786958354743
-3.5697172862962105,0.008599423437881275
-3.5643419006721118,0.00869352235053492
-3.5589665150480134,0.008787075893684392
-3.5535911294239146,0.008880079733491138
-3.548215743799816,0.008972533095346378
-3.5428403581757175,0.009064438845197559
-3.5374649725516187,0.00915580356127892
-3.53208958692752,0.009246637595781579
-3.5267142013034216,0.009336955126023162
-3.521338815679323,0.009426774194700935
-3.5159634300552245,0.009516116738843856
-3.5105880444311257,0.009605008607105437
-3.505212658807027,0.009693479565076782
-3.4998372731829286,0.009781563288330238
-3.49446188755883,0.009869297342943933
-3.489086501934731,0.00995672315329467
-3.4837111163106327,0.010043885956949758
-3.478335730686534,0.01013083474652858
-3.4729603450624356,0.010217622198451133
-3.467584959438337,0.010304304588535776
-3.462209573814238,0.010390941694455112
-3.4568341881901397,0.010477596685108406
-3.451458802566041,0.010564335997016068
-3.4460834169419425,0.010651229197894123
-3.4407080313178438,0.010738348837614702
-3.435332645693745,0.010825770286810914
-3.4299572600696466,0.010913571563434095
-3.424581874445548,0.011001833147623014
-3.419206488821449,0.011090637785294802
-3.4138311031973507,0.011180070280915989
-3.408455717573252,0.011270217279962576
-3.4030803319491536,0.011361167041624657
-3.397704946325055,0.01145300920235787
-3.392329560700956,0.011545834530928976
-3.3869541750768577,0.011639734675646482
-3.381578789452759,0.011734801904507302
-3.3762034038286606,0.011831128839030005
-3.370828018204562,0.011928808182582521
-3.365452632580463,0.012027932444044116
-3.3600772469563647,0.012128593657674325
-3.354701861332266,0.012230883100088658
-3.349326475708167,0.012334891005266451
-3.3439510900840688,0.012440706278536155
-3.33857570445997,0.012548416210504152
-3.3332003188358716,0.012658106191905199
-3.327824933211773,0.012769859430365078
-3.322449547587674,0.012883756670071776
-3.3170741619635757,0.012999875915356292
-3.311698776339477,0.013118292159182199
-3.3063233907153786,0.013239077117538963
-3.30094800509128,0.013362298970725502
-3.295572619467181,0.01348802211249818
-3.2901972338430827,0.013616306908040238
-3.284821848218984,0.013747209461690193
-3.279446462594885,0.013880781395342531
-3.274071076970787,0.014017069638405225
-3.268695691346688,0.014156116230168075
-3.2633203057225897,0.014297958135400912
-3.257944920098491,0.014442627073960053
-3.252569534474392,0.014590149365143364
-3.247194148850294,0.014740545787485189
-3.241818763226195,0.014893831454637893
-3.2364433776020967,0.015050015707933465
-3.231067991977998,0.01520910202616747
-3.225692606353899,0.01537108795309006
-3.2203172207298008,0.015535965043032687
-3.214941835105702,0.01570371882503805
-3.209566449481603,0.01587432878579902
-3.204191063857505,0.016047768371651425
-3.198815678233406,0.016224005009798186
-3.1934402926093077,0.016403000148879642
-3.188064906985209,0.016584709318936953
-3.18268952136111,0.016769082210750585
-3.177314135737012,0.01695606277446738
-3.171938750112913,0.017145589337363872
-3.1665633644888147,0.017337594740526915
-3.161187978864716,0.017532006494165815
-3.155812593240617,0.017728746951205816
-3.150437207616519,0.01792773349874718
-3.14506182199242,0.01812887876691196
-3.1396864363683212,0.018332090854537963
-3.134311050744223,0.018537273571119922
-3.128935665120124,0.01874432669433896
-3.1235602794960258,0.01895314624246631
-3.118184893871927,0.019163624760871856
-3.112809508247828,0.019375651621818774
-3.10743412262373,0.019589113336674922
-3.102058736999631,0.019803893879626715
-3.0966833513755327,0.020019875021939335
-3.091307965751434,0.0202369366757652
-3.085932580127335,0.020454957246468883
-3.080557194503237,0.020673813992401743
-3.075181808879138,0.020893383391032458
-3.0698064232550393,0.02111354151031171
-3.064431037630941,0.021334164384129023
-3.059055652006842,0.021555128390702213
-3.053680266382744,0.021776310632724158
-3.048304880758645,0.02199758931808366
-3.0429294951345462,0.022218844139969964
-3.037554109510448,0.02243995665516868
-3.032178723886349,0.022660810659360514
-3.026803338262251,0.022881292558238096
-3.021427952638152,0.02310129173326931
-3.016052567014053,0.023320700900947632
-3.010677181389955,0.02353941646439047
-3.005301795765856,0.02375733885616731
-2.9999264101417573,0.02397437287126679
-2.994551024517659,0.024190427989141856
-2.98917563889356,0.02440541868380585
-2.983800253269462,0.024619264720989475
-2.978424867645363,0.024831891441410653
-2.9730494820212643,0.025043230029252496
-2.967674096397166,0.02525321776499292
-2.962298710773067,0.025461798261779422
-2.956923325148969,0.025668921684596148
-2.95154793952487,0.025874544951527495
-2.9461725539007713,0.026078631916479248
-2.940797168276673,0.026281153532781095
-2.935421782652574,0.026482087997156345
-2.9300463970284754,0.02668142087361008
-2.924671011404377,0.026879145196853013
-2.9192956257802782,0.027075261554947414
-2.91392024015618,0.027269778150929375
-2.908544854532081,0.027462710843232496
-2.9031694689079823,0.027654083164809468
-2.897794083283884,0.027843926320917277
-2.892418697659785,0.02803227916560622
-2.887043312035687,0.02821918815702079
-2.881667926411588,0.028404707291694448
-2.8762925407874893,0.02858889801808961
-2.870917155163391,0.028771829129702817
-2.865541769539292,0.028953576638125054
-2.8601663839151934,0.02913422362651398
-2.854790998291095,0.02931386008399914
-2.8494156126669963,0.029492582721607874
-2.844040227042898,0.02967049477035656
-2.838664841418799,0.029847705762217343
-2.8332894557947004,0.030024331294721505
-2.827914070170602,0.030200492780018698
-2.8225386845465033,0.030376317179261057
-2.8171632989224045,0.030551936723228975
-2.811787913298306,0.030727488620161385
-2.8064125276742073,0.0309031147517933
-2.801037142050109,0.031078961358641882
-2.7956617564260102,0.03125517871561649
-2.7902863708019114,0.0314319207990572
-2.784910985177813,0.03160934494633286
-2.7795355995537143,0.03178761150915217
-2.774160213929616,0.03196688350175661
-2.768784828305517,0.0321473262451806
-2.7634094426814184,0.03232910700876948
-2.75803405705732,0.03251239465015314
-2.7526586714332213,0.03269735925487172
-2.7472832858091225,0.03288417177684459
-2.741907900185024,0.033073003680866186
-2.7365325145609254,0.03326402658829722
-2.731157128936827,0.03345741192710294
-2.7257817433127283,0.03365333058736569
-2.7204063576886295,0.033851952583374346
-2.715030972064531,0.0340534467233602
-2.7096555864404324,0.03425798028791424
-2.704280200816334,0.03446571871808069
-2.6989048151922352,0.034676825314079035
-2.6935294295681365,0.03489146094555862
-2.688154043944038,0.03510978377423879
-2.6827786583199393,0.03533194898973408
-2.6774032726958406,0.03555810855930509
-2.672027887071742,0.035788410992215
-2.6666525014476434,0.03602300111930867
-2.661277115823545,0.03626201988836407
-2.6559017301994463,0.03650560417569641
-2.6505263445753475,0.036753886614427356
-2.645150958951249,0.03700699543975402
-2.6397755733271504,0.03726505435148382
-2.634400187703052,0.03752818239402041
-2.6290248020789533,0.03779649385391402
-2.6236494164548545,0.0380700981750083
-2.618274030830756,0.038349099891142074
-2.6128986452066574,0.03863359857628358
-2.6075232595825586,0.03892368881190064
-2.6021478739584603,0.03921946017129217
-2.5967724883343615,0.039520997220531096
-2.591397102710263,0.03982837953559666
-2.5860217170861644,0.04014168173519958
-2.5806463314620656,0.04046097352873522
-2.5752709458379672,0.04078631977873181
-2.5698955602138684,0.041117780577095475
-2.56452017458977,0.041455411334393316
-2.5591447889656713,0.04179926288135501
-2.5537694033415725,0.04214938158172203
-2.548394017717474,0.042505809455519315
-2.5430186320933754,0.042868584311780575
-2.5376432464692766,0.04323773988971487
-2.5322678608451783,0.0436133060072648
-2.5268924752210795,0.043995308715976025
-2.521517089596981,0.04438377046106748
-2.5161417039728824,0.044778710245573894
-2.5107663183487836,0.045180143797411795
-2.5053909327246853,0.04558808373821287
-2.5000155471005865,0.046002539752760085
-2.494640161476488,0.046423518757866294
-2.4892647758523894,0.04685102506953779
