Values,Density
-9.387355596295695,1.8874751507580445e-7
-9.37766228447986,2.017901096496022e-7
-9.367968972664025,2.1782410383752726e-7
-9.35827566084819,2.370542010465826e-7
-9.348582349032355,2.597196188530715e-7
-9.33888903721652,2.8609607997942543e-7
-9.329195725400686,3.1649802501032553e-7
-9.31950241358485,3.51281051330643e-7
-9.309809101769016,3.9084458600124883e-7
-9.30011578995318,4.356347962641838e-7
-9.290422478137346,4.861477438111717e-7
-9.28072916632151,5.429327867567668e-7
-9.271035854505676,6.065962335627395e-7
-9.26134254268984,6.778052520223232e-7
-9.251649230874007,7.572920355386481e-7
-9.24195591905817,8.458582285153504e-7
-9.232262607242337,9.443796105679247e-7
-9.222569295426501,1.0538110393754074e-6
-9.212875983610667,1.175191648938867e-6
-9.203182671794831,1.3096503000548099e-6
-9.193489359978997,1.4584112772580982e-6
-9.183796048163162,1.6228002239632167e-6
-9.174102736347328,1.804250307518851e-6
-9.164409424531492,2.0043086009918776e-6
-9.154716112715656,2.22464266848299e-6
-9.145022800899822,2.467047336585093e-6
-9.135329489083986,2.7334516328747505e-6
-9.125636177268152,3.0259258686493595e-6
-9.115942865452316,3.346688841276979e-6
-9.106249553636482,3.698115126668511e-6
-9.096556241820647,4.082742430994157e-6
-9.086862930004813,4.503278965992119e-6
-9.077169618188977,4.9626108098929644e-6
-9.067476306373143,5.4638092113531295e-6
-9.057782994557307,6.010137791520251e-6
-9.048089682741473,6.605059594684895e-6
-9.038396370925637,7.252243935849945e-6
-9.028703059109803,7.955572988439276e-6
-9.019009747293968,8.719148054071521e-6
-9.009316435478134,9.54729545105202e-6
-8.999623123662298,1.0444571957405994e-5
-8.989929811846464,1.1415769739629537e-5
-8.980236500030628,1.2465920697287206e-5
-8.970543188214794,1.3600300150543206e-5
-8.960849876398958,1.4824429796352241e-5
-8.951156564583123,1.6144079857516487e-5
-8.941463252767289,1.75652703482106e-5
-8.931769940951453,1.9094271378223594e-5
-8.922076629135619,2.073760241958888e-5
-8.912383317319783,2.250203045922345e-5
-8.902690005503949,2.4394566962425424e-5
-8.892996693688113,2.6422463574739263e-5
-8.88330338187228,2.859320649206687e-5
-8.873610070056444,3.0914509432255e-5
-8.86391675824061,3.339430514604034e-5
-8.854223446424774,3.6040735410592e-5
-8.84453013460894,3.886213945305736e-5
-8.834836822793104,4.1867040760741256e-5
-8.82514351097727,4.50641322404504e-5
-8.815450199161434,4.846225969721424e-5
-8.8057568873456,5.2070403614326403e-5
-8.796063575529764,5.5897659223040803e-5
-8.78637026371393,5.9953214864014344e-5
-8.776676951898095,6.424632865162198e-5
-8.76698364008226,6.878630346589774e-5
-8.757290328266425,7.358246030738161e-5
-8.747597016450591,7.864411006567977e-5
-8.737903704634755,8.398052376312921e-5
-8.72821039281892,8.960090135131781e-5
-8.718517081003085,9.551433915012432e-5
-8.70882376918725,0.00010172979603423511
-8.699130457371416,0.00010825605848502513
-8.68943714555558,0.00011510170464147478
-8.679743833739746,0.00012227506749450633
-8.67005052192391,0.0001297841973855081
-8.660357210108076,0.0001376368239798774
-8.65066389829224,0.00014584031789993852
-8.640970586476406,0.00015440165221217855
-8.63127727466057,0.00016332736397358348
-8.621583962844737,0.00017262351605186292
-8.6118906510289,0.00018229565944065385
-8.602197339213067,0.00019234879629854637
-8.592504027397231,0.00020278734394458924
-8.582810715581397,0.00021361510004702829
-8.573117403765561,0.0002248352092424251
-8.563424091949727,0.00023645013142301052
-8.553730780133892,0.00024846161192699535
-8.544037468318058,0.0002608706538630417
-8.534344156502222,0.0002736774927928672
-8.524650844686386,0.00028688157398896325
-8.514957532870552,0.0003004815324726372
-8.505264221054716,0.0003144751760260356
-8.495570909238882,0.00032885947135797254
-8.485877597423046,0.0003436305335849047
-8.476184285607212,0.0003587836191731187
-8.466490973791377,0.0003743131224659361
-8.456797661975543,0.0003902125758995373
-8.447104350159707,0.00040647465398739244
-8.437411038343873,0.0004230911811292509
-8.427717726528037,0.0004400531432747698
-8.418024414712203,0.00045735070344670933
-8.408331102896367,0.00047497322109968203
-8.398637791080533,0.0004929092752653311
-8.388944479264698,0.0005111466914044203
-8.379251167448864,0.0005296725718620405
-8.369557855633028,0.0005484733297912922
-8.359864543817194,0.0005675347263875592
-8.350171232001358,0.0005868419112469991
-8.340477920185524,0.0006063794656398173
-8.330784608369688,0.0006261314484655115
-8.321091296553854,0.0006460814446349536
-8.311397984738019,0.0006662126156058851
-8.301704672922183,0.0006865077517792129
-8.292011361106349,0.0007069493264502645
-8.282318049290513,0.0007275195509947423
-8.272624737474679,0.0007482004309612642
-8.262931425658843,0.000768973822732914
-8.25323811384301,0.0007898214904187885
-8.243544802027174,0.0008107251626332315
-8.23385149021134,0.000831666588824229
-8.224158178395504,0.0008526275948161945
-8.21446486657967,0.0008735901372416942
-8.204771554763834,0.0008945363565473607
-8.195078242948,0.0009154486282730804
-8.185384931132164,0.000936309612321138
-8.17569161931633,0.0009571022999514383
-8.165998307500494,0.000977810058259778
-8.15630499568466,0.0009984166719222646
-8.146611683868825,0.0010189063820134122
-8.13691837205299,0.0010392639217337227
-8.127225060237155,0.001059474548912408
-8.117531748421321,0.0010795240751796595
-8.107838436605485,0.001099398891735482
-8.09814512478965,0.0011190859916717626
-8.088451812973815,0.0011385729888366523
-8.07875850115798,0.001157848133260338
-8.069065189342146,0.001176900323192816
-8.05937187752631,0.0011957191138314942
-8.049678565710476,0.0012142947228459423
-8.03998525389464,0.0012326180328328905
-8.030291942078806,0.0012506805908572075
-8.02059863026297,0.0012684746052586265
-8.010905318447136,0.001285992939921543
-8.0012120066313,0.0013032291062223325
-7.991518694815466,0.0013201772528825644
-7.981825382999631,0.00133683215396678
-7.972132071183796,0.0013531891952703393
-7.962438759367961,0.0013692443593486293
-7.952745447552126,0.0013849942094381965
-7.943052135736291,0.001400435872519052
-7.933358823920456,0.0014155670217619008
-7.9236655121046216,0.0014303858585955308
-7.913972200288787,0.001444891094618244
-7.904278888472952,0.0014590819335632416
-7.894585576657117,0.0014729580535116672
-7.884892264841282,0.0014865195895274498
-7.875198953025447,0.0014997671168688505
-7.865505641209612,0.001512701634907878
-7.855812329393777,0.0015253245518659364
-7.8461190175779425,0.0015376376704495619
-7.836425705762108,0.0015496431744450225
-7.826732393946273,0.0015613436163043164
-7.817039082130438,0.0015727419057319173
-7.807345770314603,0.0015838412992542905
-7.797652458498768,0.0015946453907331876
-7.787959146682933,0.0016051581027587969
-7.778265834867097,0.0016153836788397966
-7.768572523051263,0.001625326676285857
-7.758879211235428,0.001634991959664052
-7.749185899419593,0.0016443846946926632
-7.739492587603758,0.0016535103424262752
-7.729799275787923,0.0016623746535749453
-7.720105963972088,0.0016709836627946083
-7.710412652156253,0.001679343682781529
-7.700719340340418,0.0016874612980031824
-7.6910260285245835,0.0016953433579003224
-7.681332716708749,0.0017029969693999787
-7.671639404892914,0.0017104294885870557
-7.661946093077079,0.0017176485113934818
-7.652252781261244,0.0017246618631764701
-7.642559469445409,0.0017314775870734475
-7.632866157629574,0.0017381039310392851
-7.623172845813739,0.0017445493334901432
-7.6134795339979044,0.0017508224075005463
-7.60378622218207,0.0017569319235217033
-7.594092910366235,0.0017628867906127124
-7.5843995985504,0.0017686960362007648
-7.574706286734565,0.001774368784409338
-7.565012974918729,0.0017799142330186465
-7.555319663102894,0.0017853416291450548
-7.545626351287059,0.0017906602437494333
-7.5359330394712245,0.001795879345106003
-7.52623972765539,0.0018010081713832667
-7.516546415839555,0.0018060559025068184
-7.50685310402372,0.0018110316314908538
-7.497159792207885,0.001815944335438871
-7.48746648039205,0.001820802846426767
-7.477773168576215,0.0018256158224897751
-7.46807985676038,0.0018303917189429458
-7.4583865449445454,0.0018351387602668703
-7.448693233128711,0.0018398649127939377
-7.438999921312876,0.0018445778584264237
-7.429306609497041,0.0018492849696152384
-7.419613297681206,0.0018539932858200638
-7.409919985865371,0.0018587094916625545
-7.400226674049536,0.0018634398969718212
-7.390533362233701,0.0018681904189074387
-7.380840050417866,0.001872966566329088
-7.3711467386020315,0.0018777734265628399
-7.361453426786197,0.0018826156546955276
-7.351760114970361,0.0018874974655063645
-7.342066803154526,0.0018924226281238216
-7.332373491338691,0.0018973944634720873
-7.322680179522856,0.0019024158445481755
-7.312986867707021,0.0019074891995475227
-7.3032935558911865,0.0019126165178316654
-7.293600244075352,0.001917799358709036
-7.283906932259517,0.0019230388629767753
-7.274213620443682,0.001928335767150336
-7.264520308627847,0.0019336904202862694
-7.254826996812012,0.0019391028032852836
-7.245133684996177,0.0019445725505436197
-7.235440373180342,0.0019500989738052837
-7.225747061364507,0.0019556810880537318
-7.2160537495486725,0.001961317639267674
-7.206360437732838,0.0019670071338558984
-7.196667125917003,0.0019727478695779916
-7.186973814101168,0.001978537967749286
-7.177280502285333,0.0019843754065259085
-7.167587190469498,0.0019902580550615195
-7.157893878653663,0.0019961837083272323
-7.148200566837828,0.002002150122386916
-7.138507255021993,0.0020081550499232124
-7.128813943206158,0.002014196275813009
-7.119120631390323,0.0020202716525581296
-7.109427319574488,0.002026379135382242
-7.099734007758653,0.0020325168168154294
-7.090040695942818,0.0020386829605941893
-7.080347384126983,0.002044876034717459
-7.070654072311148,0.002051094743507422
-7.0609607604953135,0.0020573380585364627
-7.051267448679479,0.0020636052482921573
-7.041574136863644,0.0020698959064641767
-7.031880825047809,0.002076209978748307
-7.022187513231974,0.0020825477880747865
-7.012494201416139,0.0020889100581784337
-7.002800889600304,0.002095297935440492
-6.993107577784469,0.002101713008941814
-6.9834142659686345,0.0021081573286772445
-6.9737209541528,0.002114633421891502
-6.964027642336965,0.002121144307505783
-6.95433433052113,0.0021276935086126346
-6.944641018705295,0.0021342850630261326
-6.93494770688946,0.0021409235318808964
-6.925254395073624,0.0021476140062816687
-6.915561083257789,0.0021543621120120766
-6.9058677714419545,0.0021611740123176062
-6.89617445962612,0.0021680564087841686
-6.886481147810285,0.002175016540340329
-6.87678783599445,0.0021820621804161146
-6.867094524178615,0.0021892016322987936
-6.85740121236278,0.0021964437227303094
-6.847707900546945,0.00220379779379863
-6.83801458873111,0.0022112736931794216
-6.8283212769152755,0.0022188817627928643
-6.818627965099441,0.0022266328259448716
-6.808934653283606,0.002234538173029954
-6.799241341467771,0.0022426095458790134
-6.789548029651936,0.002250859120842783
-6.779854717836101,0.0022592994907088713
-6.770161406020266,0.00226794364555752
-6.760468094204431,0.002276804952668929
-6.750774782388596,0.0022858971356025794
-6.7410814705727615,0.002295234252576094
-6.731388158756927,0.00230483067427873
-6.721694846941092,0.0023147010612619124
-6.712001535125256,0.002324860341055045
-6.702308223309421,0.002335323685161507
-6.692614911493586,0.002346106486094784
-6.682921599677751,0.002357224334619655
-6.6732282878619165,0.0023686929973656076
-6.663534976046082,0.002380528394983352
-6.653841664230247,0.002392746581015443
-6.644148352414412,0.002405363721651162
-6.634455040598577,0.0024183960765348004
-6.624761728782742,0.0024318599807909053
-6.615068416966907,0.002445771828425689
-6.605375105151072,0.00246014805725506
-6.595681793335237,0.0024750051355003164
-6.5859884815194025,0.0024903595501803415
-6.576295169703568,0.0025062277974153627
-6.566601857887733,0.002522626374740697
-6.556908546071898,0.002539571775511156
-6.547215234256063,0.0025570804854561126
-6.537521922440228,0.002575168981423216
-6.527828610624393,0.0025938537323245935
-6.518135298808558,0.0026131512022741117
-6.5084419869927235,0.0026330778558768374
-6.498748675176888,0.0026536501656041107
-6.489055363361053,0.002674884621157919
-6.479362051545218,0.002696797740699721
-6.469668739729383,0.0027194060837869485
-6.459975427913548,0.0027427262658327317
-6.450282116097713,0.002766774973872732
-6.440588804281878,0.0027915689833955468
-6.4308954924660435,0.0028171251759648783
-6.421202180650209,0.0028434605573355934
-6.411508868834374,0.0028705922757419153
-6.401815557018539,0.002898537640014208
-6.392122245202704,0.0029273141371610554
-6.382428933386869,0.0029569394490385845
-6.372735621571034,0.0029874314677155317
-6.363042309755199,0.003018808309133921
-6.3533489979393645,0.003051088324661076
-6.34365568612353,0.003084290110127846
-6.333962374307695,0.0031184325119520823
-6.32426906249186,0.003153534629955752
-6.314575750676025,0.003189615816497368
-6.30488243886019,0.003226695671559943
-6.295189127044355,0.0032647940334587025
-6.285495815228519,0.003303930964860537
-6.2758025034126845,0.003344126733840526
-6.26610919159685,0.0033854017897388764
-6.256415879781015,0.0034277767336224237
-6.24672256796518,0.0034712722832028215
-6.237029256149345,0.003515909232110986
-6.22733594433351,0.0035617084034824196
-6.217642632517675,0.0036086905978622436
-6.20794932070184,0.003656876535498059
-6.1982560088860055,0.0037062867931477277
-6.188562697070171,0.003756941735590845
-6.178869385254336,0.003808861442093324
-6.169176073438501,0.0038620656281371218
-6.159482761622666,0.003916573562785977
-6.149789449806831,0.003972403982118403
-6.140096137990996,0.004029574999215217
-6.130402826175161,0.0040881040112427935
-6.120709514359326,0.004148007604223458
-6.1110162025434915,0.0042093014561303075
-6.101322890727657,0.004272000238985102
-6.091629578911822,0.004336117520673095
-6.081936267095987,0.0044016656672182936
-6.072242955280151,0.0044686557462859395
-6.062549643464316,0.00453709743269496
-6.052856331648481,0.004606998916731921
-6.0431630198326465,0.004678366816059399
-6.033469708016812,0.004751206092005245
-6.023776396200977,0.004825519971004702
-6.014083084385142,0.004901309871944875
-6.004389772569307,0.004978575340131351
-5.994696460753472,0.00505731398855791
-5.985003148937637,0.005137521447116183
-5.975309837121802,0.0052191913203279245
-5.965616525305967,0.005302315154124225
-5.9559232134901325,0.005386882412130209
-5.946229901674298,0.005472880461841657
-5.936536589858463,0.005560294571004553
-5.926843278042628,0.005649107914426424
-5.917149966226793,0.005739301591365651
-5.907456654410958,0.00583085465355505
-5.897763342595123,0.005923744143830292
-5.888070030779288,0.006017945145239923
-5.8783767189634535,0.006113430840426317
-5.868683407147619,0.006210172580975576
-5.858990095331783,0.0063081399663472
-5.849296783515948,0.00640730093190939
-5.839603471700113,0.006507621845523858
-5.829910159884278,0.006609067612046628
-5.820216848068443,0.006711601785040492
-5.810523536252608,0.006815186684926918
-5.8008302244367735,0.006919783522748059
-5.791136912620939,0.0070253525286562354
-5.781443600805104,0.0071318530842050705
-5.771750288989269,0.007239243857481058
-5.762056977173434,0.0073474829400877635
-5.752363665357599,0.0074565279849776196
-5.742670353541764,0.0075663363441183
-5.732977041725929,0.007676865204982602
-5.7232837299100945,0.007788071724861964
-5.71359041809426,0.007899913162023988
-5.703897106278425,0.008012347002765364
-5.69420379446259,0.008125331083449917
-5.684510482646755,0.008238823706669497
-5.67481717083092,0.008352783750721906
-5.665123859015085,0.008467170771663195
-5.65543054719925,0.008581945097263032
-5.6457372353834145,0.00869706791226895
-5.63604392356758,0.008812501334467721
-5.626350611751745,0.008928208481121188
-5.61665729993591,0.009044153525443997
-5.606963988120075,0.00916030174288724
-5.59727067630424,0.009276619547087769
-5.587577364488405,0.009393074515442747
-5.57788405267257,0.009509635404366733
-5.5681907408567355,0.009626272154387543
-5.558497429040901,0.009742955885333762
-5.548804117225066,0.009859658881960944
-5.539110805409231,0.009976354570454881
-5.529417493593396,0.010093017486337591
-5.519724181777561,0.010209623234382698
-5.510030869961726,0.010326148441225352
-5.500337558145891,0.010442570701419508
-5.490644246330056,0.01055886851776083
-5.4809509345142216,0.010675021236747791
-5.471257622698387,0.010791008980102108
-5.461564310882552,0.010906812573308371
-5.451870999066717,0.011022413472163872
-5.442177687250882,0.011137793688351522
-5.432484375435046,0.011252935715060801
-5.422791063619211,0.011367822453685379
-5.4130977518033765,0.011482437142620849
-5.403404439987542,0.01159676328916985
-5.393711128171707,0.01171078460553954
-5.384017816355872,0.011824484949882478
-5.374324504540037,0.01193784827329144
-5.364631192724202,0.012050858573609819
-5.354937880908367,0.012163499856861743
-5.345244569092532,0.012275756107042507
-5.335551257276697,0.012387611264939221
-5.3258579454608626,0.012499049216574621
-5.316164633645028,0.012610053791785123
-5.306471321829193,0.012720608773357022
-5.296778010013358,0.012830697917054216
-5.287084698197523,0.012940304982775732
-5.277391386381688,0.013049413776986084
-5.267698074565853,0.013158008206460584
-5.258004762750018,0.013266072343290471
-5.2483114509341835,0.013373590500990913
-5.238618139118349,0.013480547321457034
-5.228924827302514,0.013586927872413775
-5.219231515486678,0.013692717754910835
-5.209538203670843,0.013797903220319593
-5.199844891855008,0.013902471296200355
-5.190151580039173,0.014006409920322021
-5.180458268223338,0.014109708082036872
-5.1707649564075036,0.014212355970137376
-5.161071644591669,0.014314345126253772
-5.151378332775834,0.01441566860278905
-5.141685020959999,0.014516321124332415
-5.131991709144164,0.014616299251446111
-5.122298397328329,0.014715601545679507
-5.112605085512494,0.014814228734634751
-5.102911773696659,0.01491218387588465
-5.0932184618808245,0.015009472518529817
-5.08352515006499,0.015106102861176949
-5.073831838249155,0.01520208590512462
-5.06413852643332,0.015297435601553791
-5.054445214617485,0.015392168991544266
-5.04475190280165,0.015486306337765637
-5.035058590985815,0.015579871246731828
-5.02536527916998,0.015672890780553676
-5.015671967354145,0.015765395557178253
-5.00597865553831,0.0158574198381658
-4.996285343722475,0.01594900160312259
-4.98659203190664,0.016040182609983238
-4.976898720090805,0.016131008440415765
-4.96720540827497,0.01622152852970815
-4.957512096459135,0.016311796180584665
-4.9478187846433,0.016401868560493294
-4.9381254728274655,0.016491806682001512
-4.928432161011631,0.01658167536603612
-4.918738849195796,0.016671543187801556
-4.909045537379961,0.016761482405311782
-4.899352225564126,0.01685156887056947
-4.889658913748291,0.01694188192352592
-4.879965601932456,0.017032504269050425
-4.870272290116621,0.017123521837232876
-4.8605789783007864,0.017215023627434305
-4.850885666484952,0.017307101536586027
-4.841192354669117,0.017399850172321287
-4.831499042853282,0.017493366651600367
-4.821805731037447,0.01758775038556152
-4.812112419221612,0.01768310285139605
-4.802419107405777,0.01777952735210499
-4.792725795589941,0.017877128765047757
-4.7830324837741065,0.017976013280238484
-4.773339171958272,0.018076288129385193
-4.763645860142437,0.01817806130669871
-4.753952548326602,0.018281441282522296
-4.744259236510767,0.01838653671085312
-4.734565924694932,0.018493456131835402
-4.724872612879097,0.018602307670313213
-4.715179301063262,0.018713198731527266
-4.7054859892474274,0.01882623569503599
-4.695792677431593,0.018941523607927693
-4.686099365615758,0.019059165878375712
-4.676406053799923,0.019179263970567514
-4.666712741984088,0.01930191710201474
-4.657019430168253,0.019427221944225137
-4.647326118352418,0.01955527232768787
-4.637632806536583,0.019686158952092237
-4.627939494720748,0.01981996910266979
-4.6182461829049135,0.019956786373515716
-4.608552871089079,0.020096690398713382
-4.598859559273244,0.020239756592055513
