Values,Density
-13.120597589157839,4.814826242566239e-7
-13.108448003153782,4.831125588120044e-7
-13.096298417149725,4.864891001848948e-7
-13.08414883114567,4.916208362071295e-7
-13.071999245141614,4.985209832858439e-7
-13.059849659137557,5.072074041184704e-7
-13.0477000731335,5.17702632298056e-7
-13.035550487129445,5.300339036493074e-7
-13.023400901125388,5.442331946145518e-7
-13.011251315121331,5.603372673843032e-7
-12.999101729117275,5.783877217932498e-7
-12.98695214311322,5.984310541273796e-7
-12.974802557109163,6.205187225646891e-7
-12.962652971105106,6.447072193743741e-7
-12.95050338510105,6.710581499855262e-7
-12.938353799096994,6.996383183979771e-7
-12.926204213092937,7.305198196014273e-7
-12.91405462708888,7.637801382326392e-7
-12.901905041084824,7.995022540674412e-7
-12.889755455080769,8.377747537369196e-7
-12.877605869076712,8.786919491812761e-7
-12.865456283072655,9.223540022307297e-7
-12.853306697068598,9.688670557228551e-7
-12.841157111064543,1.018343370670638e-6
-12.829007525060486,1.0709014699045172e-6
-12.81685793905643,1.1266662874806488e-6
-12.804708353052373,1.1857693244868295e-6
-12.792558767048318,1.2483488104481077e-6
-12.780409181044261,1.3145498709288272e-6
-12.768259595040204,1.3845247004984351e-6
-12.756110009036147,1.4584327417688225e-6
-12.74396042303209,1.5364408694901188e-6
-12.731810837028036,1.6187235804562914e-6
-12.719661251023979,1.7054631883438656e-6
-12.707511665019922,1.7968500238773298e-6
-12.695362079015865,1.8930826399495611e-6
-12.68321249301181,1.9943680213084774e-6
-12.671062907007753,2.1009217992164902e-6
-12.658913321003697,2.2129684703134107e-6
-12.64676373499964,2.330741619756098e-6
-12.634614148995585,2.454484148528384e-6
-12.622464562991528,2.584448504507975e-6
-12.610314976987471,2.7208969170860672e-6
-12.598165390983414,2.8641016352234493e-6
-12.58601580497936,3.0143451686111093e-6
-12.573866218975303,3.171920531662778e-6
-12.561716632971246,3.3371314900111117e-6
-12.549567046967189,3.510292809398227e-6
-12.537417460963134,3.6917305064583864e-6
-12.525267874959077,3.8817821011491015e-6
-12.51311828895502,4.080796870527953e-6
-12.500968702950964,4.289136103459001e-6
-12.488819116946908,4.507173355959527e-6
-12.476669530942852,4.735294706749958e-6
-12.464519944938795,4.973899012655466e-6
-12.452370358934738,5.223398163408223e-6
-12.440220772930683,5.484217335548582e-6
-12.428071186926626,5.756795244681295e-6
-12.41592160092257,6.041584396218082e-6
-12.403772014918513,6.339051333338359e-6
-12.391622428914456,6.6496768825504e-6
-12.3794728429104,6.973956395527731e-6
-12.367323256906344,7.3123999875491456e-6
-12.355173670902287,7.665532771222879e-6
-12.34302408489823,8.033895085521065e-6
-12.330874498894175,8.418042719347211e-6
-12.318724912890119,8.818547129077134e-6
-12.306575326886062,9.23599564958905e-6
-12.294425740882005,9.670991698103662e-6
-12.28227615487795,1.012415497020228e-5
-12.270126568873893,1.059612162771428e-5
-12.257976982869836,1.1087544477271331e-5
-12.24582739686578,1.1599093139549616e-5
-12.233677810861725,1.2131454208164864e-5
-12.221528224857668,1.2685331397655972e-5
-12.209378638853611,1.3261445679890651e-5
-12.197229052849554,1.3860535408355759e-5
-12.1850794668455,1.4483356429521345e-5
-12.172929880841442,1.51306821806977e-5
-12.160780294837386,1.580330377357487e-5
-12.148630708833329,1.6502030063118497e-5
-12.136481122829274,1.7227687700549152e-5
-12.124331536825217,1.7981121170501397e-5
-12.11218195082116,1.8763192810897222e-5
-12.100032364817103,1.9574782815582822e-5
-12.087882778813048,2.0416789218279585e-5
-12.075733192808991,2.1290127858262804e-5
-12.063583606804935,2.219573232585775e-5
-12.051434020800878,2.313455388813692e-5
-12.039284434796821,2.4107561393589593e-5
-12.027134848792766,2.5115741155557533e-5
-12.01498526278871,2.6160096813319196e-5
-12.002835676784652,2.7241649170711658e-5
-11.990686090780596,2.8361436011624993e-5
-11.97853650477654,2.9520511891408495e-5
-11.966386918772484,3.071994790427874e-5
-11.954237332768427,3.196083142570881e-5
-11.94208774676437,3.324426582953111e-5
-11.929938160760315,3.457137017942981e-5
-11.917788574756258,3.5943278893931906e-5
-11.905638988752202,3.736114138505001e-5
-11.893489402748145,3.882612166979235e-5
-11.88133981674409,4.033939795438984e-5
-11.869190230740033,4.1902162190932905e-5
-11.857040644735976,4.351561960600544e-5
-11.84489105873192,4.518098820138327e-5
-11.832741472727864,4.6899498226137416e-5
-11.820591886723808,4.8672391620669525e-5
-11.80844230071975,5.0500921431816895e-5
-11.796292714715694,5.2386351199661986e-5
-11.784143128711639,5.432995431549565e-5
-11.771993542707582,5.633301335132611e-5
-11.759843956703525,5.83968193611094e-5
-11.747694370699469,6.052267115307878e-5
-11.735544784695414,6.271187453477708e-5
-11.723395198691357,6.496574152939924e-5
-11.7112456126873,6.728558956520638e-5
-11.699096026683243,6.967274063738932e-5
-11.686946440679186,7.212852044337706e-5
-11.674796854675131,7.465425749170716e-5
-11.662647268671074,7.72512821852968e-5
-11.650497682667018,7.992092587954733e-5
-11.63834809666296,8.266451991610071e-5
-11.626198510658906,8.54833946326225e-5
-11.614048924654849,8.837887835005118e-5
-11.601899338650792,9.13522963373822e-5
-11.589749752646735,9.440496975572296e-5
-11.57760016664268,9.753821458182723e-5
-11.565450580638624,0.00010075334051275631
-11.553300994634567,0.00010405164985242315
-11.54115140863051,0.00010743443638144444
-11.529001822626455,0.00011090298421119211
-11.516852236622398,0.0001144585666237861
-11.504702650618341,0.0001181024448988952
-11.492553064614285,0.00012183586712929875
-11.48040347861023,0.00012566006702598035
-11.468253892606173,0.000129576262715174
-11.456104306602116,0.00013358565552802192
-11.44395472059806,0.00013768942878514137
-11.431805134594004,0.0001418887465774693
-11.419655548589947,0.00014618475254524112
-11.40750596258589,0.00015057856865679587
-11.395356376581834,0.00015507129398909447
-11.383206790577779,0.00015966400351177324
-11.371057204573722,0.0001643577468767015
-11.358907618569665,0.00016915354721484376
-11.346758032565608,0.0001740523999426511
-11.334608446561552,0.0001790552715795527
-11.322458860557497,0.00018416309857916587
-11.31030927455344,0.00018937678617568943
-11.298159688549383,0.0001946972072479178
-11.286010102545326,0.0002001252012029161
-11.273860516541271,0.0002056615728812084
-11.261710930537214,0.00021130709148589762
-11.249561344533157,0.00021706248953766894
-11.2374117585291,0.00022292846185771598
-11.225262172525046,0.00022890566458096725
-11.213112586520989,0.00023499471420117875
-11.200963000516932,0.0002411961866506671
-11.188813414512875,0.00024751061641617466
-11.17666382850882,0.00025393849569301484
-11.164514242504763,0.00026048027357988314
-11.152364656500707,0.00026713635531569035
-11.14021507049665,0.0002739071015610481
-11.128065484492595,0.0002807928277255758
-11.115915898488538,0.00028779380334352424
-11.103766312484481,0.0002949102514991425
-11.091616726480424,0.0003021423483037366
-11.07946714047637,0.000309490222425767
-11.067317554472313,0.00031695395467633454
-11.055167968468256,0.00032453357765059934
-11.043018382464199,0.00033222907542755295
-11.030868796460144,0.00034004038332895777
-11.018719210456087,0.0003479673877391752
-11.00656962445203,0.0003560099259867387
-10.994420038447974,0.0003641677862890819
-10.982270452443917,0.00037244070776165997
-10.970120866439862,0.00038082838049186343
-10.957971280435805,0.0003893304456792936
-10.945821694431748,0.00039794649584247443
-10.933672108427691,0.0004066760750934947
-10.921522522423636,0.00041551867948014156
-10.90937293641958,0.000424473757396961
-10.897223350415523,0.0004335407100648906
-10.885073764411466,0.00044271889208007294
-10.87292417840741,0.0004520076120317282
-10.860774592403354,0.00046140613318932863
-10.848625006399297,0.0004709136742587182
-10.83647542039524,0.00048052941020710043
-10.824325834391185,0.0004902524731565444
-10.812176248387129,0.0005000819533453604
-10.800026662383072,0.0005100169001570872
-10.787877076379015,0.0005200563232159458
-10.77572749037496,0.0005301991935483434
-10.763577904370903,0.0005404444448093241
-10.751428318366846,0.0005507909745727877
-10.73927873236279,0.0005612376456845215
-10.727129146358735,0.0005717832876766752
-10.714979560354678,0.0005824266982422648
-10.702829974350621,0.0005931666447681469
-10.690680388346564,0.0006040018659252211
-10.67853080234251,0.0006149310733135436
-10.666381216338452,0.0006259529531611923
-10.654231630334396,0.0006370661680745971
-10.642082044330339,0.0006482693588384285
-10.629932458326282,0.0006595611462631625
-10.617782872322227,0.0006709401330778882
-10.60563328631817,0.0006824049058663734
-10.593483700314113,0.0006939540370441092
-10.581334114310057,0.0007055860868735555
-10.569184528306002,0.0007172996055160481
-10.557034942301945,0.0007290931351167174
-10.544885356297888,0.0007409652119211409
-10.532735770293831,0.0007529143684200353
-10.520586184289776,0.0007649391355203147
-10.50843659828572,0.0007770380447393475
-10.496287012281662,0.0007892096304197181
-10.484137426277606,0.0008014524319623507
-10.47198784027355,0.0008137649960747537
-10.459838254269494,0.0008261458790318789
-10.447688668265437,0.000838593648947103
-10.43553908226138,0.000851106888050397
-10.423389496257325,0.0008636841949710827
-10.411239910253268,0.0008763241870227397
-10.399090324249212,0.0008890255024872618
-10.386940738245155,0.0009017868028959103
-10.3747911522411,0.0009146067753045004
-10.362641566237043,0.0009274841345603959
-10.350491980232986,0.0009404176255587903
-10.33834239422893,0.0009534060254860434
-10.326192808224874,0.0009664481460474094
-10.314043222220818,0.0009795428356773848
-10.30189363621676,0.0009926889817300872
-10.289744050212704,0.001005885512647819
-10.277594464208647,0.001019131400105647
-10.265444878204592,0.0010324256611300812
-10.253295292200535,0.0010457673601902999
-10.241145706196479,0.0010591556112596332
-10.228996120192422,0.0010725895798462254
-10.216846534188367,0.001086068484990879
-10.20469694818431,0.0010995916012310437
-10.192547362180253,0.001113158260529253
-10.180397776176196,0.0011267678541649956
-10.168248190172141,0.0011404198345888444
-10.156098604168085,0.0011541137172378377
-10.143949018164028,0.0011678490823111556
-10.131799432159971,0.0011816255765054818
-10.119649846155916,0.0011954429147090356
-10.107500260151859,0.0012093008816540518
-10.095350674147802,0.001223199333527018
-10.083201088143745,0.0012371381995363974
-10.07105150213969,0.0012511174834374528
-10.058901916135634,0.001265137265014241
-10.046752330131577,0.00127919770151838
-10.03460274412752,0.001293299029065019
-10.022453158123465,0.0013074415639857005
-10.010303572119408,0.0013216257041385833
-9.998153986115351,0.001335851930176199
-9.986004400111295,0.0013501208067711837
-9.97385481410724,0.0013644329838002453
-9.961705228103183,0.0013787891974868796
-9.949555642099126,0.0013931902715035444
-9.93740605609507,0.0014076371180336334
-9.925256470091012,0.0014221307387939182
-9.913106884086957,0.0014366722260182516
-9.9009572980829,0.0014512627634030797
-9.888807712078844,0.0014659036270153992
-9.876658126074787,0.0014805961861640868
-9.864508540070732,0.0014953419042350417
-9.852358954066675,0.0015101423394910246
-9.840209368062618,0.0015249991458368385
-9.828059782058562,0.0015399140735503185
-9.815910196054507,0.0015548889699802642
-9.80376061005045,0.001569925780211062
-9.791611024046393,0.0015850265476954875
-9.779461438042336,0.0016001934148553187
-9.767311852038281,0.0016154286236507082
-9.755162266034224,0.0016307345161184774
-9.743012680030168,0.001646113534879382
-9.73086309402611,0.001661568223614893
-9.718713508022056,0.0016771012275130918
-9.706563922017999,0.0016927152936838934
-9.694414336013942,0.0017084132715435051
-9.682264750009885,0.0017241981131673545
-9.67011516400583,0.0017400728736116904
-9.657965578001773,0.001756040711202631
-9.645815991997717,0.0017721048877925704
-9.63366640599366,0.0017882687689824415
-9.621516819989605,0.0018045358243093772
-9.609367233985548,0.0018209096273982634
-9.597217647981491,0.0018373938560759416
-9.585068061977434,0.0018539922924465128
-9.572918475973378,0.0018707088229261296
-9.560768889969323,0.0018875474382354781
-9.548619303965266,0.0019045122333476985
-9.536469717961209,0.001921607407389855
-9.524320131957152,0.0019388372634953866
-9.512170545953097,0.001956206208605155
-9.50002095994904,0.0019737187532142394
-9.487871373944984,0.0019913795110616007
-9.475721787940927,0.002009193198759915
-9.463572201936872,0.002027164635361925
-9.451422615932815,0.0020452987418600552
-9.439273029928758,0.002063600540616154
-9.427123443924701,0.002082075154717284
-9.414973857920646,0.0021007278072538325
-9.40282427191659,0.002119563820516388
-9.390674685912533,0.0021385886151066864
-9.378525099908476,0.002157807708959265
-9.366375513904421,0.002177226716268775
-9.354225927900364,0.0021968513463191965
-9.342076341896307,0.0022166874022102254
-9.32992675589225,0.0022367407794764045
-9.317777169888195,0.0022570174645944532
-9.305627583884139,0.0022775235333741305
-9.293477997880082,0.0022982651492280885
-9.281328411876025,0.0023192485613161046
-9.26917882587197,0.0023404801025587933
-9.257029239867913,0.002361966187516653
-9.244879653863856,0.0023837133101293124
-9.2327300678598,0.0024057280413109566
-9.220580481855743,0.0024280170263969334
-9.208430895851688,0.002450586982437799
-9.196281309847631,0.002473444695335985
-9.184131723843574,0.002496597016821198
-9.171982137839517,0.002520050861260526
-9.159832551835462,0.0025438132022994712
-9.147682965831406,0.002567891069329957
-9.135533379827349,0.002592291543782364
-9.123383793823292,0.00261702175523793
-9.111234207819237,0.0026420888773586266
-9.09908462181518,0.002667500123631963
-9.086935035811123,0.0026932627429279753
-9.074785449807067,0.0027193840148665195
-9.062635863803012,0.002745871244992765
-9.050486277798955,0.002772731759759642
-9.038336691794898,0.0027999729013159468
-9.026187105790841,0.002827602022099122
-9.014037519786786,0.002855626479232952
-9.00188793378273,0.0028840536287293083
-8.989738347778673,0.0029128908194952117
-8.977588761774616,0.002942145387145426
-8.96543917577056,0.002971824647622339
-8.953289589766504,0.0030019358906246867
-8.941140003762447,0.003032486372847423
-8.92899041775839,0.0030634833110355295
-8.916840831754334,0.00309493387485499
-8.904691245750278,0.0031268451795846593
-8.892541659746222,0.003159224278633376
-8.880392073742165,0.00319207815588701
-8.868242487738108,0.003225413717890969
-8.856092901734053,0.003259237785873877
-8.843943315729996,0.0032935570876188574
-8.83179372972594,0.0033283782491896723
-8.819644143721883,0.003363707786518749
-8.807494557717828,0.0033995520968657395
-8.79534497171377,0.0034359174501547036
-8.783195385709714,0.0034728099801995442
-8.771045799705657,0.0035102356758270467
-8.758896213701602,0.0035482003719080925
-8.746746627697545,0.0035867097403075943
-8.734597041693489,0.003625769280764562
-8.722447455689432,0.003665384311714155
-8.710297869685377,0.0037055599610638854
-8.69814828368132,0.003746301156937171
-8.685998697677263,0.003787612618397048
-8.673849111673206,0.003829498846164012
-8.661699525669151,0.003871964113342399
-8.649549939665095,0.003915012456169592
-8.637400353661038,0.0039586476648031665
-8.625250767656981,0.004002873274161607
-8.613101181652926,0.004047692554833993
-8.60095159564887,0.0040931085040751955
-8.588802009644812,0.004139123836902524
-8.576652423640756,0.004185740977310998
-8.564502837636699,0.004232962049623862
-8.552353251632644,0.004280788869995713
-8.540203665628587,0.004329222938085487
-8.52805407962453,0.004378265428917115
-8.515904493620473,0.00442791718494512
-8.503754907616418,0.0044781787083433945
-8.491605321612361,0.004529050153534644
-8.479455735608305,0.004580531319978636
-8.467306149604248,0.004632621645236965
-8.455156563600193,0.004685320198332209
-8.443006977596136,0.004738625673419306
-8.43085739159208,0.004792536383786721
-8.418707805588022,0.004847050256204895
-8.406558219583967,0.004902164825639286
-8.39440863357991,0.004957877230345108
-8.382259047575854,0.005014184207360411
-8.370109461571797,0.005071082088414213
-8.357959875567742,0.005128566796265639
-8.345810289563685,0.0051866338414898365
-8.333660703559628,0.0052452783197261665
-8.321511117555572,0.0053044949094032045
-8.309361531551517,0.005364277869955315
-8.29721194554746,0.005424621040544245
-8.285062359543403,0.005485517839299282
-8.272912773539346,0.005546961263088393
-8.260763187535291,0.005608943887832522
-8.248613601531234,0.00567145786937418
-8.236464015527178,0.005734494944911014
-8.22431442952312,0.005798046435004326
-8.212164843519064,0.005862103246171277
-8.200015257515009,0.005926655874069475
-8.187865671510952,0.005991694407280954
-8.175716085506895,0.006057208531702525
-8.163566499502839,0.006123187535547714
-8.151416913498784,0.006189620314965522
-8.139267327494727,0.006256495380279513
-8.12711774149067,0.006323800862850122
-8.114968155486613,0.0063915245225624594
-8.102818569482558,0.006459653755939793
-8.090668983478501,0.006528175604883436
-8.078519397474444,0.0065970767660372825
-8.066369811470388,0.006666343600775111
-8.054220225466333,0.006735962145807554
-8.042070639462276,0.006805918124404148
-8.029921053458219,0.00687619695822559
-8.017771467454162,0.006946783779759534
-8.005621881450107,0.0070176634453526475
-7.99347229544605,0.007088820548830402
-7.981322709441994,0.00716023943569535
-7.969173123437938,0.007231904217892785
-7.957023537433881,0.0073037987891328374
-7.944873951429825,0.007375906840755862
-7.932724365425768,0.007448211878127851
-7.920574779421712,0.00752069723755102
-7.9084251934176555,0.0075933461036740675
-7.8962756074136,0.0076661415273855515
-7.884126021409543,0.007739066444172722
-7.871976435405487,0.007812103692927763
-7.85982684940143,0.007885236035181473
-7.847677263397373,0.00795844617474506
-7.835527677393317,0.008031716777738292
-7.8233780913892605,0.008105030492982576
-7.811228505385205,0.008178369972736443
-7.799078919381148,0.008251717893749802
-7.786929333377092,0.008325056978613323
-7.774779747373035,0.008398370017378098
-7.762630161368979,0.00847163988942026
-7.750480575364922,0.008544849585524886
-7.7383309893608665,0.008617982230162613
-7.72618140335681,0.008691021103932283
-7.714031817352754,0.008763949666141925
-7.701882231348697,0.008836751577501023
-7.689732645344641,0.00890941072289516
-7.677583059340584,0.008981911234215378
-7.665433473336528,0.009054237513213204
-7.653283887332472,0.009126374254352684
-7.641134301328416,0.009198306467630386
-7.628984715324359,0.009270019501334152
-7.616835129320303,0.009341499064711838
-7.604685543316246,0.009412731250520211
-7.59253595731219,0.009483702557425576
-7.580386371308133,0.009554399912226678
-7.5682367853040775,0.009624810691871087
-7.556087199300021,0.009694922745236504
-7.543937613295965,0.009764724414648306
-7.531788027291908,0.009834204557105354
-7.519638441287852,0.009903352565186315
-7.507488855283795,0.009972158387608732
-7.4953392692797385,0.010040612549414164
-7.483189683275683,0.010108706171752788
-7.471040097271626,0.010176430991241247
-7.45889051126757,0.01024377937886867
-7.446740925263513,0.01031074435842565
-7.434591339259457,0.010377319624432228
-7.4224417532554,0.010443499559541146
-7.410292167251344,0.0105092792513939
-7.398142581247288,0.010574654508907103
-7.385992995243232,0.010639621877968151
-7.373843409239175,0.010704178656519844
-7.361693823235119,0.010768322909014003
-7.349544237231062,0.010832053480215643
-7.337394651227006,0.010895370008339695
-7.3252450652229495,0.010958272937503578
-7.313095479218894,0.011020763529479187
-7.300945893214837,0.011082843874729804
-7.288796307210781,0.01114451690271756
-7.276646721206724,0.011205786391468495
-7.264497135202668,0.011266656976383039
-7.252347549198611,0.011327134158281144
-7.240197963194555,0.011387224310671715
-7.228048377190499,0.011446934686237574
-7.215898791186443,0.011506273422527821
-7.203749205182386,0.011565249546850842
-7.19159961917833,0.011623872980361858
