Values,Density
-9.925139702431515,1.3574119137049756e-7
-9.915178887214452,1.3739931106759862e-7
-9.90521807199739,1.414782476311105e-7
-9.895257256780328,1.480294923306147e-7
-9.885296441563266,1.5713650874937812e-7
-9.875335626346203,1.6891534126983743e-7
-9.865374811129142,1.8351546587913603e-7
-9.855413995912079,2.0112088064405675e-7
-9.845453180695017,2.2195143684067276e-7
-9.835492365477954,2.462644079492815e-7
-9.825531550260893,2.7435629608441037e-7
-9.81557073504383,3.0656487337576976e-7
-9.805609919826768,3.4327145587154106e-7
-9.795649104609705,3.8490340668884127e-7
-9.785688289392642,4.319368645255839e-7
-9.77572747417558,4.84899691913232e-7
-9.765766658958517,5.443746383115844e-7
-9.755805843741456,6.110027087891101e-7
-9.745845028524393,6.85486730822582e-7
-9.735884213307331,7.685951077252007e-7
-9.725923398090268,8.61165746893211e-7
-9.715962582873207,9.641101476887126e-7
-9.706001767656144,1.0784176328743067e-6
-9.696040952439082,1.2051597042539441e-6
-9.686080137222019,1.34549450121757e-6
-9.676119322004958,1.5006713371817915e-6
-9.666158506787895,1.6720352878779599e-6
-9.656197691570833,1.861031800262647e-6
-9.64623687635377,2.069211289465467e-6
-9.636276061136707,2.298233687123008e-6
-9.626315245919645,2.5498729013251342e-6
-9.616354430702582,2.8260211453190465e-6
-9.606393615485521,3.1286930885850335e-6
-9.596432800268458,3.460029780751918e-6
-9.586471985051396,3.82230229563265e-6
-9.576511169834333,4.217915039625604e-6
-9.566550354617272,4.649408665637154e-6
-9.556589539400209,5.119462531337059e-6
-9.546628724183147,5.630896637838154e-6
-9.536667908966084,6.186672982771112e-6
-9.526707093749023,6.7898962609514064e-6
-9.51674627853196,7.443813842396459e-6
-9.506785463314896,8.151814959649756e-6
-9.496824648097835,8.917429033629149e-6
-9.486863832880772,9.744323068735725e-6
-9.47690301766371,1.0636298049180454e-5
-9.466942202446647,1.1597284270201038e-5
-9.456981387229586,1.2631335539366618e-5
-9.447020572012523,1.3742622188664053e-5
-9.437059756795461,1.4935422840215741e-5
-9.427098941578398,1.6214114874961612e-5
-9.417138126361337,1.75831635595234e-5
-9.407177311144274,1.9047109792745542e-5
-9.397216495927212,2.061055644286911e-5
-9.38725568071015,2.2278153253638654e-5
-9.377294865493086,2.405458030850082e-5
-9.367334050276025,2.5944530053311973e-5
-9.357373235058962,2.795268788809667e-5
-9.3474124198419,3.0083711352474514e-5
-9.337451604624837,3.23422079424587e-5
-9.327490789407776,3.473271160913272e-5
-9.317529974190712,3.725965800666347e-5
-9.307569158973651,3.9927358569142625e-5
-9.297608343756588,4.2739973515112245e-5
-9.287647528539527,4.570148389048366e-5
-9.277686713322463,4.881566277959576e-5
-9.267725898105402,5.208604582847883e-5
-9.257765082888339,5.551590123981792e-5
-9.247804267671276,5.9108199416299e-5
-9.237843452454214,6.286558244068385e-5
-9.227882637237151,6.679033359815664e-5
-9.21792182202009,7.088434715707588e-5
-9.207961006803027,7.514909863720522e-5
-9.198000191585965,7.958561580502337e-5
-9.188039376368902,8.419445064382011e-5
-9.17807856115184,8.897565255517464e-5
-9.168117745934778,9.392874305132019e-5
-9.158156930717716,9.905269220368898e-5
-9.148196115500653,0.00010434589711203791
-9.138235300283592,0.00010980616265780785
-9.128274485066528,0.00011543068480183646
-9.118313669849467,0.00012121603667941683
-9.108352854632404,0.0001271581577366506
-9.09839203941534,0.0001332523461405298
-9.08843122419828,0.00013949325467999853
-9.078470408981216,0.00014587489035771013
-9.068509593764155,0.00015239061785310946
-9.058548778547092,0.0001590331670127728
-9.04858796333003,0.00016579464450092174
-9.038627148112967,0.00017266654971314147
-9.028666332895906,0.00017963979502801965
-9.018705517678843,0.00018670473043847467
-9.008744702461781,0.00019385117257113976
-8.998783887244718,0.00020106843806725824
-8.988823072027657,0.00020834538126101101
-8.978862256810594,0.00021567043605538738
-8.96890144159353,0.00022303166185626104
-8.958940626376469,0.00023041679338815617
-8.948979811159406,0.00023781329417690497
-8.939018995942345,0.00024520841344759237
-8.929058180725281,0.00025258924614886963
-8.91909736550822,0.0002599427957806575
-8.909136550291157,0.00026725603966941923
-8.899175735074095,0.00027451599630248964
-8.889214919857032,0.0002817097943075015
-8.879254104639971,0.0002888247426344123
-8.869293289422908,0.0002958484014778315
-8.859332474205846,0.0003027686534582928
-8.849371658988783,0.00030957377456583036
-8.83941084377172,0.00031625250435952587
-8.829450028554659,0.0003227941149108633
-8.819489213337596,0.00032918847797598974
-8.809528398120534,0.000335426129886969
-8.799567582903471,0.000341498333657814
-8.78960676768641,0.0003473971378158171
-8.779645952469346,0.0003531154314840648
-8.769685137252285,0.0003586469952646578
-8.759724322035222,0.0003639865474970253
-8.74976350681816,0.0003691297854975864
-8.739802691601097,0.00037407342142110715
-8.729841876384036,0.0003788152124225841
-8.719881061166973,0.00038335398484075703
-8.709920245949911,0.00038768965216858485
-8.699959430732848,0.00039182322662421193
-8.689998615515785,0.00039575682418505065
-8.680037800298724,0.00039949366299904185
-8.67007698508166,0.00040303805513933547
-8.6601161698646,0.0004063953917224916
-8.650155354647536,0.00040957212146197804
-8.640194539430475,0.0004125757227826342
-8.630233724213412,0.0004154146696724627
-8.62027290899635,0.0004180983914989344
-8.610312093779287,0.00042063722706425256
-8.600351278562226,0.0004230423732194937
-8.590390463345162,0.0004253258284008625
-8.580429648128101,0.00042750033148828553
-8.570468832911038,0.0004295792964237599
-8.560508017693975,0.0004315767430558854
-8.550547202476913,0.000433507224703672
-8.54058638725985,0.00043538575295533864
-8.530625572042789,0.0004372277202321206
-8.520664756825726,0.0004390488206601241
-8.510703941608664,0.0004408649697984768
-8.500743126391601,0.0004426922237732375
-8.49078231117454,0.00044454669836194866
-8.480821495957477,0.00044644448856406144
-8.470860680740415,0.0004484015891784085
-8.460899865523352,0.00045043381688942424
-8.45093905030629,0.0004525567343401961
-8.440978235089228,0.0004547855766428438
-8.431017419872164,0.00045713518074426765
-8.421056604655103,0.00045961991803182903
-8.41109578943804,0.00046225363052369503
-8.401134974220978,0.0004650495709495432
-8.391174159003915,0.0004680203469845101
-8.381213343786854,0.00047117786985439655
-8.37125252856979,0.0004745333074871183
-8.36129171335273,0.00047809704233822345
-8.351330898135666,0.00048187863397448905
-8.341370082918605,0.00048588678645402825
-8.331409267701542,0.0004901293204995008
-8.32144845248448,0.0004946131504173223
-8.311487637267417,0.0004993442656779715
-8.301526822050354,0.0005043277170348921
-8.291566006833293,0.0005095676070252728
-8.28160519161623,0.0005150670846654406
-8.271644376399168,0.0005208283441275659
-8.261683561182105,0.0005268526271595964
-8.251722745965044,0.0005331402289938669
-8.24176193074798,0.0005396905074726756
-8.231801115530919,0.0005465018951117777
-8.221840300313856,0.0005535719138154479
-8.211879485096794,0.0005608971919564762
-8.201918669879731,0.0005684734835382996
-8.19195785466267,0.0005762956891636282
-8.181997039445607,0.0005843578785467551
-8.172036224228545,0.0005926533143223688
-8.162075409011482,0.0006011744769235765
-8.152114593794419,0.0006099130903253636
-8.142153778577358,0.0006188601484747695
-8.132192963360295,0.0006280059422592403
-8.122232148143233,0.0006373400868949115
-8.11227133292617,0.0006468515496482058
-8.102310517709109,0.0006565286778401486
-8.092349702492045,0.0006663592271146344
-8.082388887274984,0.0006763303899886032
-8.072428072057921,0.000686428824734471
-8.06246725684086,0.0006966406846794955
-8.052506441623796,0.0007069516480376278
-8.042545626406735,0.0007173469484191425
-8.032584811189672,0.0007278114061896948
-8.022623995972609,0.0007383294608756079
-8.012663180755547,0.0007488852048306181
-8.002702365538484,0.0007594624183969766
-7.992741550321423,0.0007700446068050334
-7.9827807351043605,0.0007806150390628746
-7.972819919887298,0.000791156789089642
-7.962859104670235,0.0008016527793432288
-7.952898289453173,0.0008120858271848126
-7.9429374742361105,0.0008224386942083245
-7.932976659019048,0.0008326941387446826
-7.923015843801986,0.0008428349717244429
-7.913055028584924,0.0008528441160531169
-7.903094213367861,0.000862704669619227
-7.893133398150799,0.0008723999720120744
-7.883172582933737,0.0008819136749851787
-7.873211767716675,0.0008912298166495539
-7.863250952499612,0.0009003328993297064
-7.85329013728255,0.0009092079709603004
-7.843329322065488,0.0009178407098414561
-7.833368506848426,0.0009262175125121317
-7.823407691631362,0.0009343255844389674
-7.8134468764143,0.0009421530331562063
-7.803486061197238,0.0009496889634311983
-7.793525245980176,0.0009569235739683539
-7.783564430763113,0.000963848255107546
-7.773603615546051,0.000970455686914843
-7.763642800328989,0.0009767399370123626
-7.7536819851119265,0.00098269655744462
-7.743721169894864,0.0009883226798358766
-7.733760354677802,0.0009936171080541824
-7.72379953946074,0.0009985804075672775
-7.7138387242436774,0.0010032149906497017
-7.703877909026615,0.001007525196584206
-7.693917093809552,0.0010115173659906258
-7.68395627859249,0.0010151999084143416
-7.6739954633754275,0.0010185833623147234
-7.664034648158365,0.001021680446610336
-7.654073832941303,0.0010245061029628385
-7.644113017724241,0.001027077528016682
-7.634152202507178,0.0010294141948556405
-7.624191387290116,0.0010315378629889831
-7.614230572073054,0.0010334725762418638
-7.604269756855992,0.0010352446479937813
-7.594308941638929,0.0010368826332855215
-7.584348126421867,0.0010384172874004626
-7.574387311204805,0.001039881510615722
-7.5644264959877425,0.0010413102789166243
-7.554465680770679,0.0010427405605690672
-7.544504865553617,0.0010442112185508456
-7.534544050336555,0.0010457628989524875
-7.524583235119493,0.0010474379055697963
-7.51462241990243,0.0010492800610234707
-7.504661604685368,0.0010513345548544585
-7.494700789468306,0.0010536477791572955
-7.4847399742512435,0.0010562671524230165
-7.474779159034181,0.0010592409323729804
-7.464818343817119,0.0010626180186682332
-7.454857528600057,0.001066447746478294
-7.444896713382994,0.001070779671987366
-7.434935898165932,0.0010756633510017634
-7.424975082948869,0.001081148111901735
-7.415014267731807,0.0010872828242512022
-7.4050534525147444,0.0010941156644400582
-7.395092637297682,0.001101693879784052
-7.38513182208062,0.0011100635525497435
-7.375171006863558,0.0011192693653992625
-7.365210191646495,0.001129354369769615
-7.355249376429433,0.0011403597587066354
-7.345288561212371,0.0011523246456687849
-7.335327745995309,0.0011652858507979124
-7.325366930778246,0.0011792776961246803
-7.315406115561184,0.0011943318111349822
-7.305445300344122,0.0012104769500704885
-7.2954844851270595,0.0012277388222712439
-7.285523669909996,0.0012461399367937594
-7.275562854692934,0.0012656994624510298
-7.265602039475872,0.001286433104325968
-7.2556412242588095,0.001308352997704495
-7.245680409041747,0.001331467620261382
-7.235719593824685,0.0013557817232113314
-7.225758778607623,0.0013812962820113524
-7.2157979633905605,0.001408008467066979
-7.205837148173498,0.0014359116347586972
-7.195876332956436,0.0014649953389646853
-7.185915517739374,0.0014952453631132023
-7.175954702522311,0.0015266437726552586
-7.165993887305249,0.0015591689877048017
-7.156033072088186,0.0015927958754521191
-7.146072256871124,0.0016274958618175462
-7.136111441654061,0.0016632370616769918
-7.126150626436999,0.0016999844268614764
-7.116189811219937,0.0017376999110085218
-7.106228996002875,0.001776342650226726
-7.096268180785812,0.0018158691584272855
-7.08630736556875,0.0018562335360759017
-7.076346550351688,0.001897387691030914
-7.0663857351346255,0.0019392815700553752
-7.056424919917563,0.0019818633995238822
-7.046464104700501,0.0020250799337916472
-7.036503289483439,0.002068876709651996
-7.0265424742663765,0.0021131983052805198
-7.016581659049313,0.002157988602048696
-7.006620843832251,0.0022031910475892487
-6.996660028615189,0.0022487489185076164
-6.9866992133981265,0.0022946055811587616
-6.976738398181064,0.0023407047489476945
-6.966777582964002,0.0023869907346627476
-6.95681676774694,0.002433408696413509
-6.946855952529877,0.0024799048758202095
-6.936895137312815,0.0025264268271857513
-6.926934322095753,0.002572923636475955
-6.916973506878691,0.0026193461290372764
-6.907012691661628,0.0026656470650910195
-6.897051876444566,0.0027117813221601474
-6.887091061227504,0.002757706063706982
-6.877130246010441,0.002803380893384412
-6.867169430793378,0.0028487679944321576
-6.857208615576316,0.0028938322538778847
-6.847247800359254,0.0029385413713306652
-6.837286985142192,0.002982865952281529
-6.827326169925129,0.0030267795859486215
-6.817365354708067,0.003070258907823106
-6.807404539491005,0.0031132836471852547
-6.7974437242739425,0.0031558366599658706
-6.78748290905688,0.0031979039474268195
-6.777522093839818,0.0032394746612227927
-6.767561278622756,0.0032805410954871335
-6.757600463405693,0.0033210986666513537
-6.74763964818863,0.0033611458817683366
-6.737678832971568,0.0034006842961529565
-6.727718017754506,0.0034397184611897344
-6.7177572025374435,0.0034782558631795543
-6.707796387320381,0.0035163068541071534
-6.697835572103319,0.0035538845752110543
-6.687874756886257,0.0035910048742241202
-6.677913941669194,0.003627686217130447
-6.667953126452132,0.00366394959524968
-6.65799231123507,0.0036998184284177766
-6.648031496018008,0.0037353184649806127
-6.638070680800945,0.003770477679257777
-6.628109865583883,0.0038053261670690126
-6.618149050366821,0.00383989603984274
-6.608188235149758,0.003874221317752863
-6.598227419932695,0.003908337822250543
-6.588266604715633,0.003942283068278801
-6.578305789498571,0.003976096156377614
-6.5683449742815085,0.0040098176648089325
-6.558384159064446,0.004043489541754106
-6.548423343847384,0.004077154997563923
-6.538462528630322,0.004110858396973322
-6.5285017134132595,0.004144645151131358
-6.518540898196197,0.004178561609239807
-6.508580082979135,0.004212654949549707
-6.498619267762073,0.004246973069422514
-6.48865845254501,0.004281564474135517
-6.478697637327947,0.004316478164089713
-6.468736822110885,0.0043517635200689495
-6.458776006893823,0.0043874701861990675
-6.44881519167676,0.004423647950267052
-6.438854376459698,0.0044603466210803525
-6.428893561242636,0.004497615902578963
-6.418932746025574,0.004535505264452556
-6.408971930808511,0.004574063809065396
-6.399011115591449,0.00461334013455133
-6.389050300374387,0.004653382194007149
-6.3790894851573245,0.004694237150786017
-6.369128669940262,0.004735951229973599
-6.3591678547232,0.004778569566213744
-6.349207039506138,0.004822136048138848
-6.339246224289075,0.004866693159753095
-6.329285409072012,0.00491228181920811
-6.31932459385495,0.004958941215505156
-6.309363778637888,0.005006708643749759
-6.2994029634208255,0.005055619339674835
-6.289442148203763,0.005105706314234866
-6.279481332986701,0.005157000189155178
-6.269520517769639,0.005209529034396502
-6.259559702552576,0.005263318208562823
-6.249598887335514,0.005318390203342004
-6.239638072118452,0.005374764493118439
-6.22967725690139,0.0054324573909391655
-6.219716441684327,0.005491481912044221
-6.209755626467264,0.005551847646191143
-6.199794811250202,0.005613560640008815
-6.18983399603314,0.0056766232906104875
-6.179873180816077,0.005741034251675656
-6.169912365599015,0.0058067883531779645
-6.159951550381953,0.005873876535890121
-6.149990735164891,0.005942285801738153
-6.140029919947828,0.006011999181004314
-6.130069104730766,0.006082995717293607
-6.120108289513704,0.0061552504710810155
-6.1101474742966415,0.006228734542548702
-6.100186659079579,0.0063034151143020085
-6.090225843862517,0.006379255514422939
-6.080265028645455,0.0064562153001825945
-6.0703042134283915,0.0065342503625856925
-6.060343398211329,0.006613313051767487
-6.050382582994267,0.006693352323104303
-6.040421767777205,0.006774313903736043
-6.0304609525601425,0.006856140479032177
-6.02050013734308,0.0069387718983666075
-6.010539322126018,0.0070221453994001
-6.000578506908956,0.007106195849902696
-5.990617691691893,0.007190856005989326
-5.980656876474831,0.007276056785483774
-5.970696061257769,0.007361727554977616
-5.960735246040707,0.007447796429009296
-5.950774430823644,0.007534190579657077
-5.940813615606581,0.007620836554719391
-5.930852800389519,0.007707660602549066
-5.920891985172457,0.00779458900151417
-5.910931169955394,0.007881548391980346
-5.900970354738332,0.007968466108647716
-5.89100953952127,0.008055270511031346
-5.8810487243042076,0.008141891309847242
-5.871087909087145,0.008228259887059976
-5.861127093870083,0.00831430960735837
-5.851166278653021,0.008399976118859183
-5.8412054634359585,0.008485197640889017
-5.831244648218896,0.008569915236766947
-5.821283833001834,0.008654073069601562
-5.811323017784772,0.00873761863922574
-5.8013622025677085,0.008820502998522106
-5.791401387350646,0.008902680947538199
-5.781440572133584,0.008984111203953888
-5.771479756916522,0.00906475654864179
-5.761518941699459,0.009144583945255006
-5.751558126482397,0.009223564632981143
-5.741597311265335,0.009301674191817507
-5.731636496048273,0.009378892579947642
-5.72167568083121,0.00945520414303106
-5.711714865614148,0.009530597595453447
-5.701754050397086,0.009605065973825256
-5.691793235180024,0.00967860656325395
-5.681832419962961,0.009751220797153133
-5.671871604745899,0.009822914131584079
-5.661910789528836,0.00989369589535078
-5.651949974311774,0.00996357911728571
-5.641989159094711,0.010032580332368764
-5.632028343877649,0.010100719368513804
-5.622067528660587,0.010168019116030769
-5.6121067134435245,0.010234505281931783
-5.602145898226462,0.010300206131385761
-5.5921850830094,0.010365152218744362
-5.582224267792338,0.010429376110656413
-5.5722634525752754,0.01049291210385825
-5.562302637358213,0.010555795940274063
-5.552341822141151,0.010618064522080065
-5.542381006924089,0.010679755629381046
-5.5324201917070255,0.010740907643115926
-5.522459376489963,0.010801559275750805
-5.512498561272901,0.010861749312234475
-5.502537746055839,0.010921516363581987
-5.492576930838776,0.010980898635319002
-5.482616115621714,0.011039933712862283
-5.472655300404652,0.011098658365735158
-5.46269448518759,0.011157108372316704
-5.452733669970527,0.011215318366608018
-5.442772854753465,0.011273321708266625
-5.432812039536403,0.011331150376912744
-5.4228512243193405,0.011388834891455276
-5.412890409102278,0.011446404254916581
-5.402929593885216,0.011503885924965504
-5.392968778668153,0.011561305810090204
-5.383007963451091,0.011618688291067835
-5.373047148234028,0.011676056267113703
-5.363086333016966,0.011733431225824794
-5.353125517799904,0.011790833335772702
-5.3431647025828415,0.01184828156035161
-5.333203887365779,0.011905793791251795
-5.323243072148717,0.011963386999709773
-5.313282256931655,0.012021077403486142
-5.303321441714592,0.012078880647341148
-5.29336062649753,0.01213681199462266
-5.283399811280468,0.012194886527447251
-5.273438996063406,0.012253119352850268
-5.2634781808463424,0.012311525812201119
-5.25351736562928,0.01237012169113082
-5.243556550412218,0.012428923427196922
-5.233595735195156,0.012487948312521289
-5.223634919978093,0.012547214688673345
-5.213674104761031,0.012606742131141806
-5.203713289543969,0.012666551620834078
-5.193752474326907,0.012726665700170309
-5.183791659109844,0.012787108611492366
-5.173830843892782,0.01284790641568817
-5.16387002867572,0.012909087089136809
-5.1539092134586575,0.01297068059730749
-5.143948398241595,0.013032718943592604
-5.133987583024533,0.013095236192222314
-5.12402676780747,0.01315826846438974
-5.1140659525904075,0.01322185390701041
-5.104105137373345,0.013286032633845129
-5.094144322156283,0.013350846639026668
-5.084183506939221,0.013416339683347062
-5.0742226917221585,0.013482557153977854
-5.064261876505096,0.013549545898609704
-5.054301061288034,0.013617354035305548
-5.044340246070972,0.013686030739658347
-5.034379430853909,0.013755626011132246
-5.024418615636847,0.01382619042073355
