Values,Density
-3.8124533069147506,2.3232586336685568e-7
-3.807207066300129,2.379597023177693e-7
-3.801960825685507,2.4928462977191757e-7
-3.796714585070885,2.6649923338256665e-7
-3.791468344456263,2.899029434427769e-7
-3.7862221038416415,3.198989364724958e-7
-3.7809758632270194,3.569979773465626e-7
-3.7757296226123978,4.0182318989528953e-7
-3.770483381997776,4.5511574577744573e-7
-3.765237141383154,5.177414537857472e-7
-3.7599909007685324,5.906982306971842e-7
-3.7547446601539103,6.751244269673218e-7
-3.7494984195392886,7.72307975085984e-7
-3.7442521789246666,8.836963229855166e-7
-3.739005938310045,1.0109071041791706e-6
-3.7337596976954233,1.1557394904784801e-6
-3.728513457080801,1.3201861618142297e-6
-3.7232672164661795,1.5064458174091078e-6
-3.7180209758515574,1.7169361415103612e-6
-3.712774735236936,1.954307124199528e-6
-3.7075284946223137,2.221454625576935e-6
-3.702282254007692,2.521534057789432e-6
-3.6970360133930704,2.857974044631617e-6
-3.6917897727784483,3.234489906453475e-6
-3.6865435321638267,3.655096802127056e-6
-3.6812972915492046,4.124122345808279e-6
-3.676051050934583,4.646218505467703e-6
-3.670804810319961,5.226372573559346e-6
-3.665558569705339,5.869916991960156e-6
-3.6603123290907176,6.5825378018982694e-6
-3.6550660884760955,7.370281481400287e-6
-3.649819847861474,8.239559926861983e-6
-3.6445736072468518,9.19715333243254e-6
-3.63932736663223,1.0250210718976832e-5
-3.634081126017608,1.1406247869071018e-5
-3.6288348854029864,1.2673142429291823e-5
-3.6235886447883647,1.405912595240505e-5
-3.6183424041737426,1.557277266622803e-5
-3.613096163559121,1.7222984776122524e-5
-3.607849922944499,1.9018974130244337e-5
-3.6026036823298773,2.097024010796339e-5
-3.597357441715255,2.3086543622621164e-5
-3.5921112011006335,2.5377877170440488e-5
-3.586864960486012,2.7854430900524363e-5
-3.58161871987139,3.052655472614296e-5
-3.576372479256768,3.340471655268948e-5
-3.571126238642146,3.6499456750656994e-5
-3.5658799980275244,3.982133906125715e-5
-3.5606337574129023,4.3380898183922184e-5
-3.5553875167982807,4.7188584356528535e-5
-3.550141276183659,5.12547053033198e-5
-3.544895035569037,5.5589365988050615e-5
-3.5396487949544153,6.020240667175755e-5
-3.5344025543397932,6.510333983392527e-5
-3.5291563137251716,7.030128656998827e-5
-3.5239100731105495,7.580491313070176e-5
-3.518663832495928,8.162236830888334e-5
-3.5134175918813058,8.776122241910267e-5
-3.508171351266684,9.42284086410776e-5
-3.5029251106520625,0.00010103016751369584
-3.4976788700374404,0.00010817199537375283
-3.4924326294228187,0.00011565859752636284
-3.4871863888081966,0.00012349384691339588
-3.481940148193575,0.00013168074901335342
-3.476693907578953,0.0001402214136570143
-3.4714476669643313,0.00014911703438273
-3.4662014263497096,0.0001583678758737203
-3.4609551857350875,0.000167973269934181
-3.455708945120466,0.00017793162034952792
-3.450462704505844,0.0001882404168635915
-3.445216463891222,0.00019889625837257036
-3.4399702232766,0.00020989488529751105
-3.4347239826619784,0.00022123122094972608
-3.429477742047357,0.00023289942154844367
-3.4242315014327347,0.0002448929343940587
-3.418985260818113,0.00025720456354056537
-3.413739020203491,0.00026982654215421814
-3.4084927795888693,0.00028275061059415685
-3.4032465389742472,0.0002959680991038785
-3.3980002983596256,0.00030947001387194445
-3.392754057745004,0.0003232471250980695
-3.387507817130382,0.00033729005559948386
-3.38226157651576,0.00035158936840941693
-3.377015335901138,0.00036613565175941387
-3.3717690952865165,0.00038091959980263504
-3.3665228546718944,0.0003959320874267931
-3.3612766140572727,0.00041116423752753095
-3.356030373442651,0.0004266074791628785
-3.350784132828029,0.0004422535950931693
-3.3455378922134074,0.0004580947573221382
-3.3402916515987853,0.0004741235494008303
-3.3350454109841636,0.0004903329744275903
-3.3297991703695415,0.000506716447880487
-3.32455292975492,0.0005232677746453002
-3.3193066891402982,0.0005399811098543185
-3.314060448525676,0.0005568509034194931
-3.3088142079110545,0.0005738718284318683
-3.3035679672964324,0.000591038693896373
-3.298321726681811,0.0006083463425752209
-3.2930754860671887,0.0006257895350195997
-3.287829245452567,0.000643362821170862
-3.2825830048379454,0.0006610604012065244
-3.2773367642233233,0.0006788759775824757
-3.2720905236087017,0.0006968026004809807
-3.2668442829940796,0.0007148325091054092
-3.261598042379458,0.0007329569714624173
-3.256351801764836,0.0007511661254363325
-3.251105561150214,0.0007694488240873806
-3.2458593205355926,0.0007877924881817058
-3.2406130799209705,0.0008061829690007918
-3.235366839306349,0.0008246044244579406
-3.2301205986917267,0.0008430392114887608
-3.224874358077105,0.0008614677975629578
-3.219628117462483,0.0008798686940022157
-3.2143818768478614,0.0008982184135694626
-3.2091356362332397,0.0009164914545352551
-3.2038893956186176,0.0009346603131195619
-3.198643155003996,0.000952695525860095
-3.193396914389374,0.0009705657430774256
-3.1881506737747523,0.0009882378341966452
-3.18290443316013,0.001005677025248411
-3.1776581925455085,0.0010228470684237392
-3.172411951930887,0.0010397104430928464
-3.167165711316265,0.0010562285872369667
-3.161919470701643,0.0010723621577835574
-3.156673230087021,0.0010880713178891346
-3.1514269894723994,0.0011033160487928656
-3.1461807488577773,0.0011180564834627066
-3.1409345082431557,0.00113225325889868
-3.135688267628534,0.0011458678836335778
-3.130442027013912,0.0011588631166989938
-3.1251957863992903,0.0011712033541015493
-3.119949545784668,0.0011828550186867154
-3.1147033051700466,0.0011937869491605163
-3.1094570645554245,0.0012039707839912317
-3.104210823940803,0.001213381335929048
-3.098964583326181,0.00122199695295655
-3.093718342711559,0.001229799861622749
-3.0884721020969375,0.0012367764889068683
-3.0832258614823154,0.0012429177590113916
-3.0779796208676937,0.0012482193617852425
-3.0727333802530716,0.001252681989827864
-3.06748713963845,0.0012563115417114981
-3.0622408990238283,0.0012591192891847555
-3.0569946584092063,0.0012611220066657755
-3.0517484177945846,0.0012623420618027847
-3.0465021771799625,0.0012628074663592892
-3.041255936565341,0.0012625518871584307
-3.036009695950719,0.0012616146173028767
-3.030763455336097,0.0012600405083444885
-3.0255172147214755,0.0012578798645233313
-3.0202709741068534,0.0012551883006097428
-3.0150247334922318,0.0012520265652627427
-3.0097784928776097,0.001248460332159397
-3.004532252262988,0.0012445599614443748
-2.999286011648366,0.0012404002342949055
-2.9940397710337443,0.001236060063588923
-2.9887935304191227,0.0012316221838054447
-2.9835472898045006,0.0012271728233669774
-2.978301049189879,0.0012228013626635614
-2.973054808575257,0.0012185999809699172
-2.967808567960635,0.0012146632953909386
-2.962562327346013,0.001211087994839266
-2.9573160867313915,0.001207972471879662
-2.9520698461167694,0.001205416455057548
-2.9468236055021477,0.0012035206440865337
-2.941577364887526,0.0012023863499881354
-2.936331124272904,0.001202115141984636
-2.9310848836582823,0.0012028085026301039
-2.9258386430436603,0.0012045674923482214
-2.9205924024290386,0.0012074924242246876
-2.9153461618144165,0.0012116825495925992
-2.910099921199795,0.0012172357546486184
-2.9048536805851732,0.001224248268066011
-2.899607439970551,0.0012328143793172153
-2.8943611993559295,0.0012430261672056325
-2.8891149587413074,0.0012549732379238954
-2.8838687181266858,0.0012687424718197393
-2.8786224775120637,0.001284417777955127
-2.873376236897442,0.001302079855495089
-2.8681299962828204,0.0013218059609619026
-2.8628837556681983,0.001343669680432813
-2.8576375150535767,0.0013677407058508284
-2.8523912744389546,0.0013940846147485475
-2.847145033824333,0.0014227626528589138
-2.841898793209711,0.0014538315192921952
-2.836652552595089,0.0014873431541982118
-2.8314063119804675,0.0015233445290938757
-2.8261600713658455,0.0015618774403179658
-2.820913830751224,0.0016029783063667286
-2.8156675901366017,0.0016466779701611173
-2.81042134952198,0.0016930015075896226
-2.805175108907358,0.0017419680439540869
-2.7999288682927364,0.0017935905802104884
-2.7946826276781147,0.0018478758311382681
-2.7894363870634926,0.0019048240777799763
-2.784190146448871,0.0019644290366644668
-2.778943905834249,0.0020266777484564125
-2.7736976652196272,0.0020915504887552144
-2.768451424605005,0.0021590207037982534
-2.7632051839903835,0.0022290549737983
-2.757958943375762,0.0023016130065692114
-2.7527127027611398,0.002376647663957135
-2.747466462146518,0.002454105023409023
-2.742220221531896,0.0025339244767657865
-2.7369739809172744,0.0026160388680776386
-2.7317277403026523,0.0027003746719004157
-2.7264814996880307,0.0027868522131528073
-2.721235259073409,0.0028753859292006273
-2.715989018458787,0.002965884674390587
-2.7107427778441653,0.003058252066793554
-2.705496537229543,0.0031523868764369717
-2.7002502966149216,0.0032481834538265475
-2.6950040560002995,0.003345532197073786
-2.689757815385678,0.0034443200554799547
-2.684511574771056,0.003544431066975842
-2.679265334156434,0.003645746926396215
-2.6740190935418124,0.003748147581180472
-2.6687728529271904,0.003851511850744921
-2.6635266123125687,0.003955718065474942
-2.6582803716979466,0.004060644721039591
-2.653034131083325,0.004166171143542299
-2.6477878904687033,0.004272178160893328
-2.6425416498540812,0.004378548775720012
-2.6372954092394596,0.00448516883512752
-2.6320491686248375,0.004591927692677647
-2.626802928010216,0.004698718858066886
-2.6215566873955938,0.004805440630162347
-2.616310446780972,0.004911996709271199
-2.6110642061663505,0.005018296784799606
-2.6058179655517284,0.005124257094764065
-2.6005717249371068,0.005229800953972977
-2.5953254843224847,0.0053348592480668006
-2.590079243707863,0.005439370891006837
-2.584833003093241,0.005543283244006325
-2.5795867624786193,0.005646552494312174
-2.5743405218639976,0.00574914399265139
-2.5690942812493756,0.0058510325485521125
-2.563848040634754,0.005952202683124894
-2.558601800020132,0.006052648839239311
-2.55335555940551,0.006152375549348513
-2.548109318790888,0.006251397561494981
-2.5428630781762664,0.006349739924270431
-2.537616837561645,0.006447438031695896
-2.5323705969470227,0.006544537629141409
-2.527124356332401,0.006641094781502085
-2.521878115717779,0.00673717580491065
-2.5166318751031573,0.006832857163275391
-2.5113856344885352,0.006928225330906465
-2.5061393938739136,0.007023376622430855
-2.500893153259292,0.007118416991098095
-2.49564691264467,0.007213461796459722
-2.4904006720300482,0.00730863554226345
-2.485154431415426,0.0074040715852521505
-2.4799081908008045,0.007499911815400981
-2.4746619501861824,0.007596306307973449
-2.4694157095715608,0.00769341294763648
-2.464169468956939,0.007791397024752277
-2.458923228342317,0.007890430803868757
-2.4536769877276954,0.00799069306436877
-2.4484307471130733,0.008092368613212825
-2.4431845064984516,0.008195647769731165
-2.4379382658838296,0.00830072582248818
-2.432692025269208,0.008407802458361811
-2.4274457846545863,0.008517081164148498
-2.422199544039964,0.008628768601230904
-2.4169533034253425,0.008743073954116672
-2.4117070628107204,0.008860208253981268
-2.406460822196099,0.00898038367871491
-2.4012145815814767,0.009103812831382164
-2.395968340966855,0.009230707999442058
-2.390722100352233,0.00936128039754399
-2.3854758597376113,0.009495739397198855
-2.3802296191229897,0.009634291747114826
-2.3749833785083676,0.009777140788478068
-2.369737137893746,0.009924485669933715
-2.364490897279124,0.010076520567477352
-2.3592446566645022,0.01023343391488284
-2.35399841604988,0.010395407650669073
-2.3487521754352585,0.0105626164879219
-2.343505934820637,0.010735227213543985
-2.3382596942060148,0.01091339802367948
-2.333013453591393,0.011097277902157553
-2.327767212976771,0.011287006048804477
-2.3225209723621494,0.011482711364384219
-2.3172747317475273,0.011684511998737662
-2.3120284911329056,0.011892514968403961
-2.306782250518284,0.012106815849608491
-2.301536009903662,0.012327498552010971
-2.2962897692890403,0.012554635178009796
-2.291043528674418,0.012788285971706143
-2.2857972880597965,0.01302849936085522
-2.2805510474451745,0.013275312094262123
-2.275304806830553,0.013528749476150459
-2.270058566215931,0.013788825698026017
-2.264812325601309,0.014055544267513306
-2.2595660849866874,0.014328898532547776
-2.2543198443720653,0.01460887229819803
-2.2490736037574437,0.01489544053226477
-2.2438273631428216,0.015188570154684694
-2.2385811225282,0.015488220904667477
-2.2333348819135783,0.015794346278427254
-2.2280886412989562,0.016106894529355445
-2.2228424006843346,0.016425809721526657
-2.2175961600697125,0.016751032826556073
-2.212349919455091,0.017082502853040762
-2.2071036788404688,0.01742015799713384
-2.201857438225847,0.01776393680222793
-2.1966111976112255,0.01811377931527637
-2.1913649569966034,0.018469628226953236
-2.1861187163819817,0.018831429982670428
-2.1808724757673597,0.019199135851413585
-2.175626235152738,0.019572702939449863
-2.170379994538116,0.01995209513618945
-2.1651337539234943,0.02033728397984884
-2.1598875133088726,0.02072824943106756
-2.1546412726942505,0.021124980543264296
-2.149395032079629,0.02152747601927678
-2.144148791465007,0.02193574464470649
-2.138902550850385,0.022349805589373647
-2.133656310235763,0.022769688569373017
-2.1284100696211414,0.023195433863393886
-2.12316382900652,0.02362709217821725
-2.1179175883918977,0.02406472435962377
-2.112671347777276,0.02450840094631347
-2.107425107162654,0.024958201565857943
-2.1021788665480323,0.025414214173149194
-2.0969326259334102,0.02587653413327859
-2.0916863853187886,0.026345263152253037
-2.086440144704167,0.02682050806043343
-2.081193904089545,0.02730237945504145
-2.075947663474923,0.027790990209525232
-2.070701422860301,0.028286453858987773
-2.0654551822456795,0.028788882872257004
-2.0602089416310574,0.029298386822506364
-2.0549627010164357,0.029815070469611793
-2.049716460401814,0.030339031768645344
-2.044470219787192,0.03087035982005383
-2.0392239791725704,0.03140913277814629
-2.0339777385579483,0.031955415735502035
-2.0287314979433266,0.03250925860181578
-2.0234852573287045,0.03307069399649981
-2.018239016714083,0.0336397351750657
-2.0129927760994613,0.03421637400989022
-2.007746535484839,0.03480057904644039
-2.0025002948702175,0.03539229365635756
-1.9972540542555957,0.03599143430899525
-1.9920078136409738,0.03659788898303601
-1.986761573026352,0.03721151573969071
-1.98151533241173,0.03783214147867456
-1.9762690917971082,0.038459560897671066
-1.9710228511824863,0.0390935356753072
-1.9657766105678645,0.03973379389677316
-1.9605303699532426,0.0403800297401164
-1.955284129338621,0.04103190343990805
-1.950037888723999,0.04168904154343164
-1.9447916481093772,0.04235103747274832
-1.9395454074947553,0.04301745240398561
-1.9342991668801335,0.04368781647293862
-1.9290529262655116,0.044361630313608874
-1.9238066856508897,0.04503836693361106
-1.918560445036268,0.04571747392749395
-1.9133142044216462,0.04639837602594139
-1.9080679638070244,0.047080477975581875
-1.9028217231924025,0.04776316774075323
-1.8975754825777806,0.04844582001508352
-1.8923292419631588,0.04912780002717977
-1.887083001348537,0.049808467621117736
-1.8818367607339153,0.05048718158881961
-1.8765905201192934,0.051163304227856074
-1.8713442795046715,0.051836206094745124
-1.8660980388900497,0.05250527092049832
-1.8608517982754278,0.053169900652037694
-1.855605557660806,0.053829520580212925
-1.850359317046184,0.0544835845125536
-1.8451130764315624,0.0551315799466255
-1.8398668358169405,0.055773033197988
-1.8346205952023187,0.05640751443529711
-1.8293743545876968,0.057034642574119845
-1.824128113973075,0.057654089980541556
-1.818881873358453,0.05826558693569975
-1.8136356327438312,0.05886892581297522
-1.8083893921292096,0.05946396492074198
-1.8031431515145877,0.0600506319653175
-1.7978969108999658,0.06062892709107477
-1.792650670285344,0.06119892545755662
-1.787404429670722,0.06176077931686888
-1.7821581890561002,0.06231471955857973
-1.7769119484414784,0.06286105669379752
-1.7716657078268567,0.06340018125498949
-1.7664194672122349,0.06393256359338936
-1.761173226597613,0.06445875306147095
-1.7559269859829911,0.06497937657386406
-1.7506807453683693,0.06549513654620549
-1.7454345047537474,0.06600680821765771
-1.7401882641391255,0.0665152363691354
-1.7349420235245039,0.06702133145555778
-1.729695782909882,0.06752606517662736
-1.7244495422952602,0.06803046551662859
-1.7192033016806383,0.06853561128947995
-1.7139570610660164,0.06904262623066798
-1.7087108204513946,0.06955267268268094
-1.7034645798367727,0.07006694492507182
-1.698218339222151,0.07058666220424865
-1.6929720986075292,0.07111306152147315
-1.6877258579929073,0.07164739024028136
-1.6824796173782854,0.07219089857660772
-1.6772333767636636,0.07274483203624232
-1.6719871361490417,0.07331042386488903
-1.6667408955344198,0.07388888757598515
-1.661494654919798,0.07448140962061478
-1.6562484143051763,0.07508914226229435
-1.6510021736905545,0.07571319671716266
-1.6457559330759326,0.07635463661719273
-1.6405096924613107,0.07701447185050803
-1.6352634518466889,0.07769365282876864
-1.630017211232067,0.07839306522696515
-1.6247709706174451,0.07911352523586962
-1.6195247300028235,0.07985577536191778
-1.6142784893882016,0.08062048080351604
-1.6090322487735798,0.08140822642673781
-1.6037860081589579,0.08221951435720153
-1.598539767544336,0.08305476219866131
-1.5932935269297142,0.08391430188259054
-1.5880472863150923,0.0847983791468609
-1.5828010457004706,0.0857071536356027
-1.5775548050858488,0.08664069960653581
-1.572308564471227,0.08759900722655974
-1.567062323856605,0.08858198443123996
-1.5618160832419832,0.0895894593190841
-1.5565698426273613,0.0906211830472086
-1.5513236020127394,0.09167683319119446
-1.5460773613981178,0.09275601752864829
-1.540831120783496,0.09385827820324733
-1.535584880168874,0.09498309622386268
-1.5303386395542522,0.09612989625172998
-1.5250923989396303,0.0972980516275739
-1.5198461583250085,0.09848688959006767
-1.5145999177103866,0.09969569663701768
-1.509353677095765,0.10092372398116761
-1.504107436481143,0.10217019305349544
-1.4988611958665212,0.10343430100828549
-1.4936149552518994,0.10471522618606066
-1.4883687146372775,0.10601213349261071
-1.4831224740226556,0.10732417965480534
-1.4778762334080338,0.10865051831658576
-1.4726299927934121,0.10999030494144141
-1.4673837521787902,0.11134270149074592
-1.4621375115641684,0.11270688085050704
-1.4568912709495465,0.11408203098233226
-1.4516450303349246,0.11546735877768256
-1.4463987897203028,0.11686209359775104
-1.441152549105681,0.1182654904845119
-1.4359063084910593,0.11967683303163215
-1.4306600678764374,0.12109543590697537
-1.4254138272618155,0.12252064702135246
-1.4201675866471937,0.1239518493409641
-1.4149213460325718,0.12538846234362938
-1.40967510541795,0.12682994312139423
-1.404428864803328,0.12827578713446636
-1.3991826241887062,0.12972552862362907
-1.3939363835740846,0.13117874069034996
-1.3886901429594627,0.13263503505573432
-1.3834439023448408,0.13409406151127903
-1.378197661730219,0.13555550707608002
-1.372951421115597,0.13701909487673894
-1.3677051805009752,0.13848458276771686
-1.3624589398863534,0.1399517617113016
-1.3572126992717317,0.14142045393769948
-1.3519664586571098,0.14289051090703397
-1.346720218042488,0.1443618110962418
-1.3414739774278661,0.145834257634987
-1.3362277368132442,0.1473077758157801
-1.3309814961986224,0.148782310504461
-1.3257352555840005,0.1502578234780915
-1.3204890149693789,0.15173429071807304
-1.315242774354757,0.15321169968695086
-1.3099965337401351,0.15469004661785507
-1.3047502931255133,0.15616933384585235
-1.2995040525108914,0.15764956721059836
-1.2942578118962695,0.15913075355957718
-1.2890115712816477,0.16061289838085757
-1.283765330667026,0.16209600359366144
-1.2785190900524042,0.16358006552411217
-1.2732728494377823,0.1650650730922741
-1.2680266088231604,0.16655100623501218
-1.2627803682085386,0.16803783458726038
-1.2575341275939167,0.16952551644200176
-1.2522878869792948,0.17101399800661182
-1.2470416463646732,0.17250321297022678
-1.2417954057500513,0.1739930823934624
-1.2365491651354295,0.17548351492816683
-1.2313029245208076,0.17697440737095443
