Values,Density
-5.501645796502534,2.3229780937716882e-7
-5.496320363031082,2.3806974269735548e-7
-5.490994929559631,2.497178193117122e-7
-5.485669496088178,2.674514001099748e-7
-5.480344062616727,2.9158710407317656e-7
-5.475018629145275,3.2255188991969774e-7
-5.469693195673823,3.6088715138493654e-7
-5.464367762202372,4.0725381000861205e-7
-5.459042328730919,4.62438388443287e-7
-5.4537168952594675,5.273600404698264e-7
-5.448391461788016,6.030785072441702e-7
-5.443066028316564,6.908029636654156e-7
-5.4377405948451125,7.919017099289327e-7
-5.43241516137366,9.079126536692961e-7
-5.427089727902208,1.0405545192160304e-6
-5.421764294430757,1.1917387071347374e-6
-5.416438860959305,1.363581715763118e-6
-5.4111134274878525,1.5584180228234157e-6
-5.405787994016401,1.7788133080676172e-6
-5.400462560544949,2.0275778847556047e-6
-5.395137127073498,2.3077801875881487e-6
-5.389811693602046,2.622760150394754e-6
-5.384486260130593,2.976142284422112e-6
-5.379160826659142,3.371848253025389e-6
-5.37383539318769,3.8141087170262544e-6
-5.3685099597162385,4.307474207931872e-6
-5.363184526244787,4.856824767224266e-6
-5.357859092773334,5.4673780726655075e-6
-5.352533659301883,6.144695758159013e-6
-5.347208225830431,6.8946876176367855e-6
-5.341882792358979,7.723613373061822e-6
-5.336557358887528,8.638081678280507e-6
-5.331231925416075,9.64504602233001e-6
-5.3259064919446235,1.0751797197761613e-5
-5.320581058473172,1.1965951997747193e-5
-5.31525562500172,1.3295437816466214e-5
-5.309930191530269,1.4748472837960817e-5
-5.304604758058816,1.6333541517256703e-5
-5.299279324587364,1.8059365081692265e-5
-5.293953891115913,1.993486681126956e-5
-5.288628457644461,2.196913189341388e-5
-5.283303024173009,2.41713616924372e-5
-5.277977590701557,2.655082232341354e-5
-5.272652157230105,2.9116787479405506e-5
-5.267326723758654,3.1878475522327185e-5
-5.262001290287202,3.484498092150984e-5
-5.2566758568157494,3.802520019611198e-5
-5.251350423344298,4.142775260150989e-5
-5.246024989872846,4.5060895884277766e-5
-5.2406995564013945,4.8932437518659985e-5
-5.235374122929943,5.304964193018208e-5
-5.23004868945849,5.7419134303166204e-5
-5.224723255987039,6.204680166389722e-5
-5.219397822515587,6.69376920193563e-5
-5.214072389044135,7.209591242155183e-5
-5.208746955572684,7.752452691152465e-5
-5.203421522101231,8.322545537278042e-5
-5.19809608862978,8.919937439435567e-5
-5.192770655158328,9.544562130378229e-5
-5.187445221686876,0.00010196210257785651
-5.182119788215425,0.00010874520787702326
-5.176794354743972,0.00011578973096720412
-5.1714689212725204,0.00012308879880359915
-5.166143487801069,0.0001306338100350215
-5.160818054329617,0.00013841438416324538
-5.1554926208581655,0.00014641832254119313
-5.150167187386713,0.00015463158233101817
-5.144841753915261,0.00016303826445448338
-5.13951632044381,0.00017162061646742912
-5.134190886972358,0.00018035905116385847
-5.1288654535009055,0.00018923218157953017
-5.123540020029454,0.00019821687290157847
-5.118214586558002,0.00020728831162518824
-5.112889153086551,0.0002164200921085553
-5.107563719615099,0.00022558432048252856
-5.102238286143646,0.00023475173566597785
-5.096912852672195,0.00024389184702647802
-5.091587419200743,0.00025297308801212545
-5.0862619857292914,0.00026196298486407844
-5.08093655225784,0.0002708283393103583
-5.075611118786387,0.00027953542393479094
-5.070285685314936,0.0002880501887207107
-5.064960251843484,0.0002963384770870159
-5.059634818372032,0.0003043662495672006
-5.054309384900581,0.0003120998131371112
-5.048983951429128,0.0003195060540710018
-5.0436585179576765,0.00032655267210623083
-5.038333084486225,0.00033320841362274
-5.033007651014773,0.000339443301500833
-5.027682217543322,0.0003452288593010257
-5.022356784071869,0.000350538327431954
-5.017031350600417,0.00035534686901302764
-5.011705917128966,0.00035963176322108964
-5.006380483657514,0.00036337258401669334
-5.001055050186062,0.0003665513622837027
-4.99572961671461,0.0003691527295821319
-4.990404183243158,0.0003711640419062148
-4.985078749771707,0.00037257548205187735
-4.979753316300255,0.00037338013943520815
-4.974427882828802,0.00037357406645340983
-4.969102449357351,0.0003731563107452361
-4.963777015885899,0.0003721289229813205
-4.9584515824144475,0.00037049694009681127
-4.953126148942996,0.00036826834415610785
-4.947800715471543,0.00036545399732169567
-4.942475282000092,0.00036206755366687167
-4.93714984852864,0.0003581253488353026
-4.931824415057188,0.00035364626879422906
-4.926498981585737,0.00034865159915733156
-4.921173548114284,0.00034316485675795795
-4.9158481146428326,0.0003372116053384378
-4.910522681171381,0.00033081925737248226
-4.905197247699929,0.0003240168641710766
-4.899871814228478,0.0003168348965135615
-4.894546380757025,0.0003093050181172726
-4.889220947285573,0.00030145985429128573
-4.883895513814122,0.0002933327581266694
-4.87857008034267,0.000284957576547536
-4.8732446468712185,0.00027636841849338137
-4.867919213399766,0.0002675994274190241
-4.862593779928314,0.0002586845601883353
-4.857268346456863,0.0002496573743079253
-4.851942912985411,0.00024055082528839575
-4.8466174795139585,0.0002313970757526554
-4.841292046042507,0.0002222273177230026
-4.835966612571055,0.000213071609315902
-4.8306411790996036,0.00020395872687180294
-4.825315745628152,0.00019491603332876667
-4.819990312156699,0.00018596936343891202
-4.814664878685248,0.0001771429262082064
-4.809339445213796,0.00016845922473569678
-4.804014011742344,0.00015993899342189345
-4.798688578270893,0.000151601152326708
-4.79336314479944,0.00014346277827373584
-4.788037711327989,0.0001355390921349616
-4.782712277856537,0.000127843461573917
-4.777386844385085,0.0001203874183973502
-4.772061410913634,0.00011318068954549627
-4.766735977442181,0.00010623124065409911
-4.7614105439707295,9.954533104855265e-5
-4.756085110499278,9.312757896401055e-5
-4.750759677027826,8.698103575262815e-5
-4.7454342435563746,8.110726781296665e-5
-4.740108810084922,7.550644497491231e-5
-4.73478337661347,7.017743408409098e-5
-4.729457943142019,6.51178965595852e-5
-4.724132509670567,6.032438873764499e-5
-4.7188070761991145,5.5792463869601405e-5
-4.713481642727663,5.151677470555116e-5
-4.708156209256211,4.749117567013142e-5
-4.70283077578476,4.370882371516546e-5
-4.697505342313308,4.01622770237163e-5
-4.692179908841855,3.684359082710767e-5
-4.686854475370404,3.3744409693187843e-5
-4.681529041898952,3.0856055734683474e-5
-4.6762036084275005,2.816961228228193e-5
-4.670878174956049,2.567600265960049e-5
-4.665552741484596,2.3366063783288038e-5
-4.660227308013145,2.123061440113469e-5
-4.654901874541693,1.9260517857219023e-5
-4.649576441070241,1.7446739352684933e-5
-4.64425100759879,1.5780397736493007e-5
-4.638925574127337,1.425281192531493e-5
-4.6336001406558855,1.2855542106972578e-5
-4.628274707184434,1.1580425931433103e-5
-4.622949273712982,1.0419609934168503e-5
-4.617623840241531,9.365576475437593e-6
-4.612298406770078,8.411166500745318e-6
-4.606972973298626,7.549598456890738e-6
-4.601647539827175,6.774483707826587e-6
-4.596322106355723,6.0798388059127295e-6
-4.590996672884271,5.460094977273108e-6
-4.585671239412819,4.910105177715826e-6
-4.580345805941367,4.425149069828271e-6
-4.575020372469916,4.000936259533974e-6
-4.569694938998464,3.6336081156475297e-6
-4.5643695055270115,3.3197384777874928e-6
-4.55904407205556,3.0563335340887815e-6
-4.553718638584108,2.8408311272421632e-6
-4.5483932051126565,2.6710997194662883e-6
-4.543067771641205,2.5454372162697636e-6
-4.537742338169752,2.462569820681909e-6
-4.532416904698301,2.4216510536578806e-6
-4.527091471226849,2.4222610461831218e-6
-4.521766037755397,2.4644061712604526e-6
-4.516440604283946,2.5485190518134693e-6
-4.511115170812493,2.675458942603265e-6
-4.505789737341042,2.8465124512211393e-6
-4.50046430386959,3.0633945285220288e-6
-4.495138870398138,3.3282496207757972e-6
-4.489813436926687,3.6436528495741027e-6
-4.484488003455234,4.012611043331671e-6
-4.4791625699837825,4.438563423368996e-6
-4.473837136512331,4.925381710125121e-6
-4.468511703040879,5.47736939274842e-6
-4.4631862695694275,6.099259878388635e-6
-4.457860836097975,6.79621321611262e-6
-4.452535402626523,7.5738110711413235e-6
-4.447209969155072,8.438049612296194e-6
-4.44188453568362,9.395329959366186e-6
-4.4365591022121675,1.0452445837031126e-5
-4.431233668740716,1.1616568075520535e-5
-4.425908235269264,1.2895225603409832e-5
-4.420582801797813,1.4296282588111345e-5
-4.415257368326361,1.5827911393789806e-5
-4.409931934854908,1.7498561050002803e-5
-4.404606501383457,1.931692095027797e-5
-4.399281067912005,2.129187953912523e-5
-4.3939556344405535,2.3432477784622943e-5
-4.388630200969102,2.5747857286477493e-5
-4.383304767497649,2.824720292337289e-5
-4.377979334026198,3.093968000815288e-5
-4.372653900554746,3.383436598998306e-5
-4.367328467083294,3.69401768152821e-5
-4.362003033611843,4.02657881441032e-5
-4.35667760014039,4.3819551701960655e-5
-4.3513521666689385,4.760940713837043e-5
-4.346026733197487,5.164278985493251e-5
-4.340701299726035,5.59265353611213e-5
-4.335375866254584,6.046678080941573e-5
-4.330050432783131,6.526886445740177e-5
-4.324724999311679,7.033722389194336e-5
-4.319399565840228,7.567529394310671e-5
-4.314074132368776,8.128540529116907e-5
-4.308748698897324,8.716868485015173e-5
-4.303423265425872,9.332495907113901e-5
-4.29809783195442,9.975266136791078e-5
-4.292772398482969,0.00010644874490600698
-4.287446965011517,0.00011340860202726719
-4.2821215315400645,0.00012062599159327067
-4.276796098068613,0.00012809297553034553
-4.271470664597161,0.0001357998658347531
-4.2661452311257095,0.00014373518326105702
-4.260819797654258,0.0001518856288571424
-4.255494364182805,0.0001602360694313422
-4.250168930711354,0.00016876953794434926
-4.244843497239902,0.00017746724969873407
-4.23951806376845,0.00018630863507030759
-4.234192630296999,0.0001952713893714612
-4.228867196825546,0.00020433154027258912
-4.223541763354095,0.00021346353302539173
-4.218216329882643,0.0002226403335402723
-4.212890896411191,0.00023183354916654457
-4.20756546293974,0.00024101356681287267
-4.202240029468287,0.0002501497078323759
-4.1969145959968355,0.000259210398877871
-4.191589162525384,0.00026816335771810695
-4.186263729053932,0.0002769757927951078
-4.1809382955824805,0.00028561461509906544
-4.175612862111028,0.00029404666074490937
-4.170287428639576,0.00030223892245780266
-4.164961995168125,0.0003101587880115098
-4.159636561696673,0.0003177742835265354
-4.1543111282252205,0.00032505431941176957
-4.148985694753769,0.0003319689366450447
-4.143660261282317,0.00033848955101607736
-4.138334827810866,0.0003445891929213674
-4.133009394339414,0.0003502427402880606
-4.127683960867961,0.0003554271422257753
-4.12235852739651,0.0003601216310572457
-4.117033093925058,0.00036430792045705456
-4.1117076604536065,0.0003679703875387278
-4.106382226982155,0.0003710962368691478
-4.101056793510702,0.0003736756445490924
-4.095731360039251,0.000375701880689494
-4.090405926567799,0.00037717140881970165
-4.085080493096347,0.00037808396099044686
-4.079755059624896,0.0003784425875789784
-4.074429626153443,0.00037825368105426675
-4.0691041926819915,0.000377526973226602
-4.06377875921054,0.0003762755057698243
-4.058453325739088,0.00037451557407527323
-4.053127892267637,0.0003722666447603837
-4.047802458796184,0.00036955124741667534
-4.042477025324732,0.0003663948414301898
-4.037151591853281,0.00036282565894676553
-4.031826158381829,0.0003588745252768376
-4.026500724910377,0.000354574658239796
-4.021175291438925,0.0003499614481313311
-4.015849857967473,0.0003450722201628362
-4.010524424496022,0.00033994598136087426
-4.00519899102457,0.00033462315403091285
-3.999873557553118,0.0003291452979836867
-3.994548124081666,0.00032355482378815015
-3.989222690610214,0.00031789469936025747
-3.9838972571387625,0.00031220815221640356
-3.9785718236673104,0.0003065383697188182
-3.973246390195859,0.00030092819961678475
-3.9679209567244067,0.0002954198531447015
-3.962595523252955,0.0002900546128780674
-3.9572700897815034,0.00028487254747140266
-3.9519446563100513,0.0002799122353114407
-3.9466192228385997,0.0002752104990164858
-3.9412937893671476,0.0002708021525995494
-3.935968355895696,0.00026671976299202406
-3.9306429224242443,0.0002629934274957367
-3.925317488952792,0.00025965056859914124
-3.9199920554813406,0.00025671574745739765
-3.9146666220098885,0.00025421049719445503
-3.909341188538437,0.00025215317704926085
-3.9040157550669847,0.0002505588482427834
-3.898690321595533,0.0002494391723055255
-3.8933648881240814,0.0002488023324617914
-3.8880394546526293,0.00024865297852950984
-3.8827140211811777,0.00024899219565245254
-3.8773885877097256,0.00024981749704594807
-3.872063154238274,0.0002511228407961804
-3.8667377207668223,0.00025289867061562346
-3.8614122872953702,0.0002551319803197529
-3.8560868538239186,0.00025780640164961306
-3.8507614203524665,0.0002609023149261064
-3.845435986881015,0.00026439698188250073
-3.8401105534095628,0.0002682646998800921
-3.834785119938111,0.00027247697657207387
-3.8294596864666595,0.0002770027239399533
-3.8241342529952074,0.0002818084704868818
-3.8188088195237557,0.00028685859023590624
-3.8134833860523036,0.00029211554704337145
-3.808157952580852,0.0002975401526112212
-3.8028325191094003,0.0003030918364512747
-3.7975070856379483,0.000308728925942363
-3.7921816521664966,0.00031440893450800436
-3.7868562186950445,0.000320088855846592
-3.781530785223593,0.00032572546206155115
-3.776205351752141,0.0003312756034664307
-3.770879918280689,0.0003366965077894052
-3.7655544848092375,0.0003419460764659439
-3.7602290513377854,0.00034698317569194725
-3.7549036178663338,0.00035176791991999067
-3.7495781843948817,0.00035626194550915976
-3.74425275092343,0.0003604286722925787
-3.7389273174519784,0.0003642335509054877
-3.7336018839805263,0.00036764429381863856
-3.7282764505090746,0.00037063108814852815
-3.7229510170376225,0.0003731667884649837
-3.717625583566171,0.0003752270879919346
-3.712300150094719,0.00037679066678718244
-3.706974716623267,0.00037783931570355405
-3.7016492831518155,0.00037835803516080707
-3.6963238496803634,0.00037833510800235406
-3.690998416208912,0.0003777621459681371
-3.6856729827374597,0.00037663410957511703
-3.680347549266008,0.0003749493014675708
-3.6750221157945564,0.00037270933356838443
-3.6696966823231043,0.00036991906862854015
-3.6643712488516527,0.0003665865370336401
-3.6590458153802006,0.000362722829977331
-3.653720381908749,0.000358341970349018
-3.648394948437297,0.00035346076290489973
-3.643069514965845,0.00034809862549239814
-3.6377440814943935,0.00034227740327879425
-3.6324186480229415,0.00033602116808753753
-3.62709321455149,0.00032935600507501533
-3.6217677810800377,0.0003223097890785072
-3.616442347608586,0.00031491195303681154
-3.6111169141371344,0.00030719325092403793
-3.6057914806656823,0.000299185517645564
-3.6004660471942307,0.0002909214283246873
-3.5951406137227786,0.0002824342593586316
-3.589815180251327,0.0002737576535412913
-3.5844897467798753,0.0002649253914478074
-3.579164313308423,0.0002559711711442453
-3.5738388798369716,0.000246928398133478
-3.5685134463655195,0.00023782998727659745
-3.563188012894068,0.00022870817824041136
-3.5578625794226157,0.00021959436581828196
-3.552537145951164,0.00021051894625771176
-3.5472117124797125,0.0002015111805076927
-3.5418862790082604,0.0001925990750722452
-3.5365608455368087,0.0001838092809297552
-3.5312354120653566,0.0001751670107527038
-3.525909978593905,0.00016669597444214299
-3.5205845451224533,0.00015841833277681436
-3.5152591116510012,0.00015035466877535725
-3.5099336781795496,0.0001425239761761862
-3.5046082447080975,0.0001349436642656722
-3.499282811236646,0.00012762957811976276
-3.4939573777651938,0.00012059603318383995
-3.488631944293742,0.00011385586298565554
-3.4833065108222905,0.00010742047867150911
-3.4779810773508384,0.00010129993896596228
-3.4726556438793867,9.550302908825897e-5
-3.4673302104079347,9.003734710983247e-5
-3.462004776936483,8.490939620555034e-5
-3.4566793434650314,8.012468124483571e-5
-3.4513539099935793,7.568780817195087e-5
-3.4460284765221276,7.16025846515362e-5
-3.4407030430506755,6.787212049710271e-5
-3.435377609579224,6.449892645378003e-5
-3.430052176107772,6.148500997964427e-5
-3.42472674263632,5.8831966751793276e-5
-3.4194013091648685,5.654106671704466e-5
-3.4140758756934164,5.4613333615199716e-5
-3.4087504422219648,5.304961701360763e-5
-3.4034250087505127,5.18506560156784e-5
-3.398099575279061,5.101713393504555e-5
-3.3927741418076094,5.054972335925552e-5
-3.3874487083361573,5.044912116707002e-5
-3.3821232748647057,5.071607320262725e-5
-3.3767978413932536,5.13513884554174e-5
-3.371472407921802,5.235594273551251e-5
-3.36614697445035,5.373067198031394e-5
-3.360821540978898,5.547655546854404e-5
-3.3554961075074465,5.7594589356880794e-5
-3.3501706740359944,6.008575109117892e-5
-3.344845240564543,6.295095537339843e-5
-3.3395198070930907,6.619100248997714e-5
-3.334194373621639,6.980651992431232e-5
-3.3288689401501874,7.379789828459212e-5
-3.3235435066787353,7.816522267608747e-5
-3.3182180732072837,8.290820073457265e-5
-3.3128926397358316,8.802608861293703e-5
-3.30756720626438,9.351761627419183e-5
-3.3022417727929283,9.938091349000373e-5
-3.296916339321476,0.00010561343797663419
-3.2915909058500246,0.00011221190711251106
-3.2862654723785725,0.00011917223467764696
-3.280940038907121,0.00012648947403437493
-3.2756146054356687,0.00013415776912492844
-3.270289171964217,0.00014217031460237708
-3.2649637384927654,0.00015051932632797528
-3.2596383050213134,0.0001591960233686741
-3.2543128715498617,0.00016819062250898894
-3.2489874380784096,0.0001774923461497738
-3.243662004606958,0.00018708944431234525
-3.2383365711355063,0.00019696923129344443
-3.2330111376640542,0.00020711813732590678
-3.2276857041926026,0.00021752177540278585
-3.2223602707211505,0.00022816502320870471
-3.217034837249699,0.00023903211988492504
-3.2117094037782468,0.0002501067771292038
-3.206383970306795,0.0002613723039065147
-3.2010585368353435,0.0002728117438209887
-3.1957331033638914,0.00028440802397988046
-3.1904076698924397,0.0002961441139702767
-3.1850822364209876,0.00030800319336720706
-3.179756802949536,0.0003199688260118556
-3.1744313694780844,0.00033202513913169456
-3.1691059360066323,0.0003441570052340878
-3.1637805025351806,0.0003563502245885978
-3.1584550690637285,0.00036859170602778456
-3.153129635592277,0.0003808696437388043
-3.147804202120825,0.00039317368769629154
-3.142478768649373,0.0004054951054013236
-3.1371533351779215,0.00041782693263722574
-3.1318279017064694,0.00043016411104013046
-3.1265024682350178,0.0004425036104039569
-3.1211770347635657,0.00045484453379485666
-3.115851601292114,0.00046718820374526534
-3.1105261678206624,0.000479538228018771
-3.1052007343492103,0.0004919005436926538
-3.0998753008777586,0.000504283438586146
-3.0945498674063066,0.0005166975493630464
-3.089224433934855,0.0005291558359624541
-3.083899000463403,0.0005416735323458782
-3.078573566991951,0.0005542680738908211
-3.0732481335204995,0.0005669590021140009
-3.0679227000490474,0.0005797678477475485
-3.062597266577596,0.0005927179935326203
-3.0572718331061437,0.0006058345184175402
-3.051946399634692,0.000619144025152227
-3.0466209661632404,0.0006326744535526379
-3.0412955326917883,0.0006464548819571205
-3.0359700992203367,0.0006605153196162965
-3.0306446657488846,0.0006748864929325476
-3.025319232277433,0.0006895996286041513
-3.019993798805981,0.0007046862368185634
-3.014668365334529,0.0007201778976812104
-3.0093429318630776,0.0007361060540653558
-3.0040174983916255,0.0007525018140075038
-2.998692064920174,0.0007693957656741343
-2.9933666314487217,0.0007868178077688999
-2.98804119797727,0.0008047969980516682
-2.9827157645058184,0.0008233614223960347
-2.9773903310343663,0.0008425380865285641
-2.9720648975629147,0.0008623528322706927
-2.9667394640914626,0.000882830279751493
-2.961414030620011,0.0009039937966787009
-2.9560885971485593,0.000925865495356286
-2.9507631636771072,0.0009484662577180633
-2.9454377302056556,0.0009718157882257902
-2.9401122967342035,0.0009959326940518222
-2.934786863262752,0.0010208345915464732
-2.9294614297912998,0.0010465382375813913
