Values,Density
-6.985646684894526,2.2459734316804258e-7
-6.97906403099892,2.3317890396334917e-7
-6.972481377103315,2.482120320390635e-7
-6.965898723207709,2.7002062200076615e-7
-6.959316069312103,2.9906484469433003e-7
-6.952733415416498,3.359470503727646e-7
-6.946150761520892,3.814192635898106e-7
-6.939568107625286,4.3639227362279875e-7
-6.932985453729681,5.019463212019293e-7
-6.926402799834075,5.793433743295218e-7
-6.91982014593847,6.7004098350254e-7
-6.913237492042864,7.757076945225094e-7
-6.906654838147258,8.982399878620928e-7
-6.900072184251653,1.0397807019280059e-6
-6.893489530356047,1.2027388782698267e-6
-6.886906876460441,1.3898109557097804e-6
-6.880324222564836,1.6040032122799364e-6
-6.87374156866923,1.8486553367003111e-6
-6.867158914773624,2.1274649834868153e-6
-6.860576260878019,2.4445131361072736e-6
-6.853993606982413,2.8042900748204147e-6
-6.847410953086807,3.2117217098615036e-6
-6.840828299191202,3.6721960077201743e-6
-6.834245645295596,4.1915892009802835e-6
-6.82766299139999,4.776291431890511e-6
-6.821080337504385,5.433231445861608e-6
-6.814497683608779,6.169899906038889e-6
-6.807915029713174,6.994370865653909e-6
-6.801332375817568,7.915320895529598e-6
-6.794749721921962,8.942045328086401e-6
-6.788167068026357,1.0084471047999699e-5
-6.781584414130751,1.1353165227961926e-5
-6.775001760235145,1.275933938773774e-5
-6.76841910633954,1.4314848131797078e-5
-6.761836452443934,1.603218191388242e-5
-6.755253798548328,1.7924453170066468e-5
-6.7486711446527226,2.0005375170660186e-5
-6.742088490757117,2.228923295494352e-5
-6.735505836861511,2.4790845741244627e-5
-6.7289231829659055,2.752552024487022e-5
-6.7223405290702996,3.0508994387263774e-5
-6.7157578751746945,3.3757370944545624e-5
-6.7091752212790885,3.728704076770041e-5
-6.7025925673834825,4.1114595294843015e-5
-6.696009913487877,4.5256728188121376e-5
-6.6894272595922715,4.973012604953496e-5
-6.6828446056966655,5.4551348303906455e-5
-6.67626195180106,5.973669648966576e-5
-6.669679297905454,6.530207335411244e-5
-6.6630966440098485,7.126283232505339e-5
-6.656513990114243,7.763361810722222e-5
-6.649931336218637,8.442819933947646e-5
-6.643348682323031,9.165929443809978e-5
-6.636766028427426,9.933839194421843e-5
-6.63018337453182,0.00010747556688380476
-6.623600720636214,0.00011607929483266289
-6.617018066740609,0.00012515626555964282
-6.610435412845003,0.0001347111982863262
-6.603852758949398,0.0001447466607526265
-6.597270105053792,0.00015526289441057228
-6.590687451158186,0.00016625764818084011
-6.584104797262581,0.00017772602328870865
-6.577522143366975,0.0001896603317530685
-6.570939489471369,0.00020204997112584092
-6.564356835575764,0.00021488131806732605
-6.557774181680158,0.00022813764329255096
-6.551191527784552,0.0002417990503398807
-6.544608873888947,0.00025584244047987224
-6.538026219993341,0.0002702415059174599
-6.531443566097735,0.0002849667532265534
-6.52486091220213,0.00029998555870825415
-6.518278258306524,0.0003152622570711111
-6.511695604410918,0.00033075826450735396
-6.505112950515313,0.0003464322368753447
-6.498530296619707,0.00036224026330917633
-6.491947642724102,0.0003781360951576433
-6.485364988828496,0.00039407140971434336
-6.47878233493289,0.0004099961077484518
-6.472199681037285,0.0004258586433772138
-6.465617027141679,0.00044160638435871737
-6.459034373246073,0.0004571860004110341
-6.452451719350468,0.0004725438767192898
-6.445869065454862,0.0004876265493475862
-6.439286411559256,0.0005023811588654569
-6.432703757663651,0.0005167559181182488
-6.426121103768045,0.0005307005897271337
-6.419538449872439,0.0005441669686088065
-6.412955795976834,0.0005571093645569038
-6.406373142081228,0.0005694850797363215
-6.399790488185622,0.0005812548758079156
-6.393207834290017,0.0005923834253337822
-6.386625180394411,0.0006028397421074232
-6.380042526498806,0.0006125975851200664
-6.3734598726032,0.0006216358310026943
-6.366877218707594,0.0006299388099863627
-6.360294564811989,0.0006374966006839518
-6.353711910916383,0.0006443052793321039
-6.347129257020777,0.0006503671195152716
-6.340546603125172,0.0006556907388424182
-6.333963949229566,0.0006602911895439781
-6.32738129533396,0.0006641899904956568
-6.320798641438355,0.0006674150987574755
-6.314215987542749,0.0006700008193277068
-6.307633333647143,0.0006719876524454507
-6.301050679751538,0.000673422078429662
-6.294468025855932,0.0006743562807006026
-6.287885371960326,0.000674847808291832
-6.281302718064721,0.0006749591798127959
-6.274720064169115,0.0006747574314618227
-6.26813741027351,0.0006743136123041234
-6.261554756377904,0.000673702230616002
-6.254972102482298,0.0006730006556484383
-6.248389448586693,0.0006722884796707858
-6.241806794691087,0.0006716468456182071
-6.235224140795481,0.0006711577460781232
-6.228641486899876,0.0006709032997040745
-6.22205883300427,0.0006709650114433453
-6.215476179108664,0.0006714230231992142
-6.208893525213059,0.0006723553617212184
-6.202310871317453,0.0006738371906225421
-6.195728217421847,0.0006759400734683459
-6.189145563526242,0.0006787312548552742
-6.182562909630636,0.0006822729663152546
-6.1759802557350305,0.0006866217637275041
-6.1693976018394245,0.0006918279027093299
-6.162814947943819,0.0006979347581865282
-6.1562322940482135,0.0007049782940123052
-6.1496496401526075,0.0007129865881212952
-6.1430669862570015,0.0007219794182705755
-6.1364843323613965,0.000731967912931758
-6.1299016784657905,0.0007429542713732716
-6.1233190245701845,0.0007549315563993575
-6.116736370674579,0.0007678835626076241
-6.1101537167789735,0.0007817847623862832
-6.1035710628833675,0.0007966003312078161
-6.096988408987762,0.0008122862530850587
-6.090405755092156,0.0008287895063511901
-6.0838231011965505,0.0008460483292042804
-6.077240447300945,0.000863992563736992
-6.070657793405339,0.0008825440764449327
-6.064075139509734,0.000901617252490456
-6.057492485614128,0.0009211195602969284
-6.050909831718522,0.0009409521823602954
-6.044327177822917,0.0009610107075117766
-6.037744523927311,0.000981185879237234
-6.031161870031705,0.0010013643940804638
-6.0245792161361,0.0010214297436187594
-6.017996562240494,0.0010412630930219987
-6.011413908344888,0.001060744188784591
-6.004831254449283,0.0010797522878679255
-5.998248600553677,0.0010981671002139488
-5.991665946658071,0.00111586973638381
-5.985083292762466,0.0011327436519612821
-5.97850063886686,0.0011486755803225956
-5.971917984971254,0.0011635564454296789
-5.965335331075649,0.0011772822464452236
-5.958752677180043,0.0011897549062023383
-5.952170023284438,0.0012008830758789089
-5.945587369388832,0.0012105828886367024
-5.939004715493226,0.0012187786554722327
-5.932422061597621,0.001225403497096253
-5.925839407702015,0.001230399906294026
-5.919256753806409,0.0012337202359267024
-5.912674099910804,0.0012353271084912104
-5.906091446015198,0.0012351937439627932
-5.899508792119592,0.001233304203490538
-5.892926138223987,0.0012296535473817378
-5.886343484328381,0.0012242479066977424
-5.879760830432775,0.001217104468668198
-5.87317817653717,0.0012082513770063676
-5.866595522641564,0.0011977275490648726
-5.860012868745958,0.0011855824125908687
-5.853430214850353,0.0011718755656175937
-5.846847560954747,0.0011566763637528878
-5.840264907059142,0.001140063439780608
-5.833682253163536,0.0011221241610797975
-5.82709959926793,0.0011029540308685332
-5.820516945372325,0.0010826560397005115
-5.813934291476719,0.0010613399739724527
-5.807351637581113,0.0010391216884342927
-5.800768983685508,0.0010161223498383852
-5.794186329789902,0.000992467658912425
-5.787603675894296,0.0009682870577968038
-5.781021021998691,0.0009437129299570308
-5.774438368103085,0.000918879799368149
-5.767855714207479,0.000893923535479256
-5.761273060311874,0.0008689805701059677
-5.754690406416268,0.0008441871319826988
-5.748107752520662,0.0008196785042359159
-5.741525098625057,0.0007955883095324325
-5.734942444729451,0.000772047827116663
-5.728359790833846,0.0007491853453946325
-5.72177713693824,0.0007271255531549649
-5.715194483042634,0.0007059889719536958
-5.708611829147029,0.0006858914316369459
-5.702029175251423,0.0006669435904432738
-5.695446521355817,0.0006492505006254479
-5.688863867460212,0.0006329112200625306
-5.682281213564606,0.0006180184699097514
-5.675698559669,0.0006046583379544432
-5.669115905773395,0.0005929100270171163
-5.662533251877789,0.0005828456474588177
-5.655950597982183,0.0005745300526332035
-5.649367944086578,0.0005680207159440773
-5.642785290190972,0.0005633676480469897
-5.6362026362953666,0.0005606133526522492
-5.629619982399761,0.000559792819348235
-5.623037328504155,0.0005609335518616358
-5.6164546746085495,0.0005640556301960802
-5.6098720207129436,0.0005691718051412525
-5.603289366817338,0.000576287623708989
-5.5967067129217325,0.0005854015841242691
-5.5901240590261265,0.0005965053190762452
-5.5835414051305206,0.0006095838060008185
-5.5769587512349155,0.0006246156032243162
-5.5703760973393095,0.0006415731108359649
-5.5637934434437035,0.0006604228551738891
-5.557210789548098,0.0006811257957988932
-5.5506281356524925,0.000703637653790487
-5.5440454817568865,0.0007279092601283187
-5.537462827861281,0.0007538869228222844
-5.530880173965675,0.000781512811318337
-5.52429752007007,0.0008107253565496674
-5.517714866174464,0.0008414596648135455
-5.511132212278858,0.0008736479434506075
-5.504549558383253,0.0009072199360782886
-5.497966904487647,0.0009421033649031733
-5.491384250592041,0.000978224377403223
-5.484801596696436,0.0010155079944468397
-5.47821894280083,0.0010538785567044545
-5.471636288905224,0.0010932601660197626
-5.465053635009619,0.0011335771182522762
-5.458470981114013,0.0011747543239806583
-5.451888327218407,0.0012167177133856552
-5.445305673322802,0.001259394621609556
-5.438723019427196,0.001302714150924665
-5.43214036553159,0.0013466075061422597
-5.425557711635985,0.001391008299857277
-5.418975057740379,0.001435852824351597
-5.412392403844774,0.0014810802872781484
-5.405809749949168,0.0015266330086051785
-5.399227096053562,0.0015724565767263055
-5.392644442157957,0.0016184999621198758
-5.386061788262351,0.0016647155874713847
-5.379479134366745,0.0017110593537460785
-5.37289648047114,0.0017574906223057404
-5.366313826575534,0.001803972153793106
-5.359731172679928,0.0018504700051488205
-5.353148518784323,0.0018969533867684773
-5.346565864888717,0.0019433944824367912
-5.339983210993111,0.0019897682352797387
-5.333400557097506,0.0020360521035413604
-5.3268179032019,0.0020822257905100646
-5.320235249306294,0.0021282709533717572
-5.313652595410689,0.0021741708961502374
-5.307069941515083,0.0022199102521944123
-5.300487287619478,0.0022654746618826793
-5.293904633723872,0.002310850451324909
-5.287321979828266,0.002356024317856286
-5.280739325932661,0.002400983028021461
-5.274156672037055,0.002445713133550962
-5.267574018141449,0.0024902007105277327
-5.260991364245844,0.0025344311265405486
-5.254408710350238,0.002578388840124293
-5.247826056454632,0.002622057236202954
-5.241243402559027,0.002665418500590787
-5.234660748663421,0.0027084535358808904
-5.228078094767815,0.0027511419202710828
-5.22149544087221,0.002793461910058591
-5.214912786976604,0.0028353904856943
-5.208330133080998,0.002876903440436846
-5.201747479185393,0.0029179755098080735
-5.195164825289787,0.002958580539233477
-5.188582171394182,0.002998691686478736
-5.181999517498576,0.003038281654773386
-5.17541686360297,0.0030773229518658036
-5.168834209707365,0.003115788169690683
-5.162251555811759,0.0031536502788608277
-5.155668901916153,0.0031908829318343726
-5.149086248020548,0.003227460768358191
-5.142503594124942,0.0032633597166600455
-5.135920940229336,0.0032985572838535116
-5.129338286333731,0.0033330328291374237
-5.122755632438125,0.0033667678136098515
-5.116172978542519,0.003399746020875101
-5.109590324646914,0.0034319537430917563
-5.103007670751308,0.003463379927685599
-5.096425016855703,0.0034940162806207397
-5.089842362960097,0.0035238573228747773
-5.083259709064491,0.0035529003975836547
-5.076677055168886,0.003581145626200523
-5.07009440127328,0.003608595812924777
-5.063511747377674,0.0036352562975958784
-5.0569290934820685,0.003661134758189166
-5.050346439586463,0.0036862409649820738
-5.043763785690857,0.003710586489364568
-5.0371811317952515,0.003734184371128383
-5.0305984778996455,0.0037570487488724387
-5.02401582400404,0.003779194458896018
-5.0174331701084345,0.00380063660859644
-5.0108505162128285,0.0038213901309431773
-5.0042678623172225,0.0038414693270505014
-4.9976852084216175,0.0038608874042084136
-4.9911025545260115,0.0038796560169585097
-4.984519900630406,0.0038977848189036875
-4.9779372467348,0.00391528103292852
-4.9713545928391945,0.003932149047373269
-4.964771938943589,0.003948390045455368
-4.958189285047983,0.003964001674871806
-4.951606631152377,0.003978977764050607
-4.945023977256772,0.0039933080909561195
-4.938441323361166,0.00400697820970068
-4.93185866946556,0.004019969339485619
-4.925276015569955,0.004032258319596107
-4.918693361674349,0.0040438176333217725
-4.912110707778743,0.004054615502774936
-4.905528053883138,0.00406461605565264
-4.898945399987532,0.004073779564038219
-4.892362746091926,0.004082062754384823
-4.885780092196321,0.004089419186875074
-4.879197438300715,0.004095799701419085
-4.87261478440511,0.004101152926650949
-4.866032130509504,0.004105425847420501
-4.859449476613898,0.0041085644254633315
-4.852866822718293,0.0041105142671763704
-4.846284168822687,0.004111221331736917
-4.839701514927081,0.004110632672188003
-4.833118861031476,0.004108697201579321
-4.82653620713587,0.004105366475802844
-4.819953553240264,0.004100595484405393
-4.813370899344659,0.00409434344039732
-4.806788245449053,0.00408657455990954
-4.800205591553447,0.004077258822485166
-4.793622937657842,0.004066372702825379
-4.787040283762236,0.004053899864942774
-4.78045762986663,0.004039831809909684
-4.773874975971025,0.00402416846872068
-4.767292322075419,0.004006918732216348
-4.760709668179814,0.003988100910535467
-4.754127014284208,0.003967743115171576
-4.747544360388602,0.003945883557401931
-4.740961706492997,0.003922570757626072
-4.734379052597391,0.0038978636609924913
-4.727796398701785,0.0038718316555949595
-4.72121374480618,0.003844554490481003
-4.714631090910574,0.003816122091719036
-4.708048437014968,0.003786634275815213
-4.701465783119363,0.0037562003608383166
-4.694883129223757,0.003724938676697662
-4.688300475328151,0.003692975977106491
-4.681717821432546,0.0036604467568468867
-4.67513516753694,0.003627492479014751
-4.668552513641334,0.003594260717954989
-4.661969859745729,0.00356090422458657
-4.655387205850123,0.0035275799217509996
-4.648804551954518,0.0034944478380858346
-4.642221898058912,0.0034616699897146545
-4.635639244163306,0.003429409219748764
-4.629056590267701,0.003397828006200339
-4.622473936372095,0.003367087249407869
-4.615891282476489,0.0033373450504596072
-4.609308628580884,0.0033087554923687153
-4.602725974685278,0.003281467435895165
-4.596143320789672,0.0032556233419238703
-4.589560666894067,0.0032313581321918427
-4.582978012998461,0.0032087980999111337
-4.576395359102855,0.003188059881457537
-4.56981270520725,0.0031692494997929525
-4.563230051311644,0.0031524614896639644
-4.556647397416039,0.0031377781138786035
-4.550064743520433,0.0031252686791137414
-4.543482089624827,0.0031149889587556486
-4.536899435729222,0.00310698072923746
-4.530316781833616,0.003101271425221439
-4.52373412793801,0.0030978739177892657
-4.517151474042405,0.003096786418570748
-4.510568820146799,0.0030979925114667925
-4.503986166251193,0.0031014613123265212
-4.4974035123555876,0.0031071477556335724
-4.490820858459982,0.003114993005956525
-4.484238204564376,0.003124924990642163
-4.4776555506687705,0.003136859048989013
-4.4710728967731646,0.0031506986919481745
-4.464490242877559,0.0031663364652730792
-4.4579075889819535,0.003183654907990761
-4.4513249350863475,0.003202527597109923
-4.444742281190742,0.003222820268620561
-4.4381596272951365,0.0032443920040942584
-4.4315769733995305,0.003267096471561987
-4.424994319503925,0.003290783208843737
-4.418411665608319,0.003315298937127845
-4.4118290117127135,0.0033404888923607083
-4.405246357817108,0.0033661981619007497
-4.398663703921502,0.003392273013924864
-4.392081050025896,0.0034185622072417186
-4.385498396130291,0.0034449182694654863
-4.378915742234685,0.003471198731929241
-4.372333088339079,0.003497267310263863
-4.365750434443474,0.0035229950202266937
-4.359167780547868,0.003548261219127556
-4.352585126652262,0.0035729545640540185
-4.346002472756657,0.0035969738790358934
-4.339419818861051,0.0036202289242928893
-4.332837164965446,0.003642641061772561
-4.32625451106984,0.0036641438122865435
-4.319671857174234,0.003684683300685178
-4.313089203278629,0.0037042185866532247
-4.306506549383023,0.0037227218798526395
-4.299923895487417,0.0037401786392664833
-4.293341241591812,0.003756587557697165
-4.286758587696206,0.0037719604334317744
-4.2801759338006,0.0037863219320923808
-4.273593279904995,0.0037997092426344673
-4.267010626009389,0.0038121716323248054
-4.260427972113783,0.003823769906322171
-4.253845318218178,0.003834575778188296
-4.247262664322572,0.003844671158267877
-4.240680010426966,0.0038541473673938866
-4.234097356531361,0.0038631042837991934
-4.227514702635755,0.0038716494314382857
-4.22093204874015,0.003879897018158082
-4.214349394844544,0.0038879669322979087
-4.207766740948938,0.003895983706354503
-4.201184087053333,0.0039040754563264193
-4.194601433157727,0.003912372805252908
-4.188018779262121,0.0039210077993039015
-4.181436125366516,0.003930112824557262
-4.17485347147091,0.003939819532335247
-4.168270817575304,0.0039502577806657625
-4.161688163679699,0.003961554599099256
-4.155105509784093,0.00397383318375355
-4.148522855888487,0.0039872119290890375
-4.141940201992882,0.0040018035025342945
-4.135357548097276,0.004017713967703653
-4.128774894201671,0.004035041961568778
-4.122192240306065,0.004053877930574441
-4.115609586410459,0.0040743034303258735
-4.109026932514854,0.004096390493120209
-4.102444278619248,0.004120201067247659
-4.095861624723642,0.004145786531648463
-4.089278970828037,0.00417318728917262
-4.082696316932431,0.004202432441349602
-4.076113663036825,0.0042335395472301056
-4.06953100914122,0.004266514468497859
-4.062948355245614,0.004301351302672474
-4.056365701350008,0.004338032405816802
-4.049783047454403,0.0043765285057237036
-4.043200393558797,0.004416798906079957
-4.036617739663191,0.004458791781585092
-4.030035085767586,0.004502444563436323
-4.02345243187198,0.004547684413972212
-4.016869777976375,0.004594428788603486
-4.010287124080769,0.0046425860824411535
-4.003704470185163,0.004692056358270876
-3.997121816289557,0.004742732151720127
-3.9905391623939517,0.004794499348628173
-3.983956508498346,0.004847238128769077
-3.97737385460274,0.004900823969206834
-3.9707912007071346,0.0049551286996908275
-3.964208546811529,0.005010021601647813
-3.957625892915923,0.005065370541507115
-3.9510432390203176,0.005121043128327531
-3.944460585124712,0.005176907884999178
-3.9378779312291066,0.005232835421682271
-3.9312952773335006,0.005288699599648362
-3.924712623437895,0.005344378673310382
-3.9181299695422895,0.005399756397998019
-3.9115473156466836,0.005454723090957395
-3.904964661751078,0.005509176633148462
-3.8983820078554725,0.005563023399687258
-3.8917993539598665,0.00561617910723967
-3.885216700064261,0.005668569567324216
-3.8786340461686555,0.005720131335322648
-3.87205139227305,0.005770812246021813
-3.865468738377444,0.005820571827717045
-3.8588860844818385,0.005869381588274683
-3.852303430586233,0.005917225168074621
-3.845720776690627,0.005964098356399808
-3.8391381227950214,0.006010008969599179
-3.832555468899416,0.006054976591185285
-3.8259728150038104,0.006099032175915002
-3.8193901611082044,0.00614221752180935
-3.812807507212599,0.006184584615962894
-3.8062248533169933,0.006226194861838225
-3.7996421994213874,0.006267118197510749
-3.793059545525782,0.006307432115978905
-3.7864768916301763,0.006347220600164892
-3.7798942377345703,0.006386572986560906
-3.773311583838965,0.006425582772606536
-3.7667289299433593,0.006464346383785459
-3.7601462760477538,0.006502961917085315
-3.753563622152148,0.006541527877862247
