Values,Density
-4.415754629838106,2.4016321625852655e-7
-4.411819134018726,2.436483103884779e-7
-4.407883638199348,2.5048328963772626e-7
-4.403948142379968,2.607385272135332e-7
-4.400012646560589,2.745183797225881e-7
-4.39607715074121,2.9196180570401076e-7
-4.392141654921831,3.132431714014672e-7
-4.3882061591024515,3.385732431082644e-7
-4.384270663283073,3.682003662242028e-7
-4.380335167463693,4.0241182860945024e-7
-4.3763996716443145,4.4153540890157217e-7
-4.372464175824935,4.859411062430041e-7
-4.368528680005556,5.360430503920099e-7
-4.364593184186177,5.92301588941968e-7
-4.360657688366798,6.55225548429339e-7
-4.356722192547418,7.253746649449333e-7
-4.35278669672804,8.033621802794322e-7
-4.34885120090866,8.898575975524459e-7
-4.3449157050892815,9.85589588831104e-7
-4.340980209269902,1.0913490498531964e-6
-4.337044713450523,1.2079922901420126e-6
-4.333109217631144,1.336444350880095e-6
-4.329173721811765,1.4777024392176319e-6
-4.325238225992385,1.632839466136904e-6
-4.321302730173007,1.8030076744390833e-6
-4.317367234353627,1.989442342087422e-6
-4.313431738534248,2.19346554394817e-6
-4.309496242714869,2.416489952999923e-6
-4.30556074689549,2.6600226621376066e-6
-4.301625251076111,2.9256690041723488e-6
-4.297689755256732,3.2151363465460214e-6
-4.293754259437352,3.5302378366131038e-6
-4.289818763617974,3.872896068244161e-6
-4.285883267798594,4.24514664485072e-6
-4.281947771979215,4.649141603968801e-6
-4.278012276159836,5.087152675041853e-6
-4.274076780340457,5.561574334574104e-6
-4.2701412845210776,6.0749266238956795e-6
-4.266205788701699,6.6298576941251075e-6
-4.262270292882319,7.229146036810338e-6
-4.258334797062941,7.87570236635178e-6
-4.254399301243561,8.57257110860321e-6
-4.250463805424182,9.322931458987174e-6
-4.246528309604803,1.01300979656882e-5
-4.242592813785424,1.0997520597374674e-5
-4.2386573179660445,1.1928784253609562e-5
-4.234721822146666,1.2927607675050287e-5
-4.230786326327286,1.3997841712728998e-5
-4.226850830507907,1.5143466916759177e-5
-4.222915334688528,1.6368590403435454e-5
-4.218979838869148,1.767744196423844e-5
-4.21504434304977,1.9074369380589484e-5
-4.21110884723039,2.056383291040853e-5
-4.2071733514110115,2.215039891590581e-5
-4.203237855591632,2.3838732604714724e-5
-4.199302359772253,2.5633589859809167e-5
-4.195366863952874,2.753980813867407e-5
-4.191431368133495,2.956229642438711e-5
-4.187495872314115,3.170602421775047e-5
-4.183560376494737,3.397600956497708e-5
-4.179624880675357,3.637730611857036e-5
-4.175689384855978,3.891498923775001e-5
-4.171753889036599,4.159414113836385e-5
-4.16781839321722,4.4419835110644235e-5
-4.163882897397841,4.7397118828396145e-5
-4.159947401578462,5.053099678116457e-5
-4.156011905759082,5.382641186691198e-5
-4.152076409939704,5.728822619083945e-5
-4.148140914120324,6.0921201123182583e-5
-4.144205418300945,6.4729976675202e-5
-4.140269922481566,6.871905026185551e-5
-4.136334426662187,7.289275492366326e-5
-4.1323989308428075,7.725523709097709e-5
-4.128463435023429,8.181043397833057e-5
-4.124527939204049,8.656205070330103e-5
-4.120592443384671,9.151353723165292e-5
-4.116656947565291,9.666806525553823e-5
-4.112721451745912,0.00010202850511720207
-4.108785955926533,0.00010759740289516956
-4.104850460107154,0.00011337695777412227
-4.1009149642877745,0.00011936899982552956
-4.096979468468396,0.00012557496832387577
-4.093043972649016,0.00013199589073202567
-4.0891084768296375,0.00013863236248545102
-4.085172981010258,0.00014548452770892992
-4.081237485190879,0.00015255206099703753
-4.0773019893715,0.00015983415038995155
-4.073366493552121,0.00016732948167410763
-4.069430997732741,0.00017503622413295866
-4.065495501913363,0.00018295201787120116
-4.061560006093983,0.00019107396282973255
-4.0576245102746045,0.000199398609603392
-4.053689014455225,0.00020792195216782355
-4.049753518635846,0.00021663942261310534
-4.045818022816467,0.00022554588797515582
-4.041882526997087,0.0002346356492455605
-4.037947031177708,0.0002439024426327957
-4.034011535358329,0.0002533394431357208
-4.03007603953895,0.0002629392704805514
-4.0261405437195705,0.00027269399746013626
-4.022205047900192,0.000282595160705279
-4.018269552080812,0.00029263377390105483
-4.014334056261434,0.00030280034345360127
-4.010398560442054,0.00031308488659616274
-4.006463064622675,0.0003234769519140854
-4.002527568803296,0.0003339656422516671
-3.998592072983917,0.00034453963995463577
-3.994656577164538,0.0003551872343873011
-3.990721081345159,0.000365896351651733
-3.9867855855257797,0.0003766545864240557
-3.9828500897064005,0.0003874492358105393
-3.9789145938870214,0.0003982673351171917
-3.9749790980676423,0.0004090956954120248
-3.971043602248263,0.00041992094275267525
-3.967108106428884,0.0004307295589393717
-3.963172610609505,0.00044150792364624006
-3.9592371147901257,0.0004522423577752316
-3.955301618970746,0.00046291916786799295
-3.951366123151367,0.00047352469140634484
-3.947430627331988,0.00048404534282395564
-3.9434951315126088,0.0004944676600485975
-3.9395596356932296,0.0005047783513873923
-3.9356241398738505,0.0005149643425656769
-3.9316886440544714,0.0005250128237263528
-3.9277531482350923,0.0005349112961947136
-3.923817652415713,0.0005446476188118131
-3.919882156596334,0.0005542100536385999
-3.915946660776955,0.0005635873108344493
-3.9120111649575757,0.0005727685925116868
-3.9080756691381966,0.0005817436353723129
-3.9041401733188175,0.0005905027519315584
-3.9002046774994383,0.0005990368701382573
-3.896269181680059,0.0006073375712036186
-3.89233368586068,0.0006153971254538593
-3.888398190041301,0.0006232085260270276
-3.884462694221922,0.000630765520237421
-3.8805271984025427,0.0006380626384396015
-3.8765917025831635,0.0006450952202245452
-3.8726562067637844,0.0006518594377933618
-3.8687207109444053,0.000658352316354166
-3.864785215125026,0.0006645717514009164
-3.860849719305647,0.0006705165227375853
-3.856914223486268,0.0006761863051193209
-3.8529787276668888,0.0006815816753951431
-3.8490432318475096,0.0006867041160422069
-3.8451077360281305,0.000691556014994453
-3.8411722402087514,0.0006961406616800246
-3.8372367443893722,0.0007004622391925709
-3.833301248569993,0.0007045258125351408
-3.829365752750614,0.000708337312888576
-3.825430256931235,0.0007119035178707704
-3.8214947611118557,0.00071523202776912
-3.8175592652924766,0.0007183312377426129
-3.8136237694730974,0.0007212103060092664
-3.8096882736537183,0.0007238791180516103
-3.805752777834339,0.000726348246889618
-3.80181728201496,0.0007286289094942111
-3.797881786195581,0.000730732919429395
-3.793946290376202,0.0007326726358366682
-3.7900107945568227,0.000734460908893602
-3.7860752987374435,0.0007361110219022554
-3.7821398029180644,0.0007376366301854106
-3.7782043070986853,0.0007390516969900743
-3.7742688112793057,0.0007403704266224706
-3.7703333154599266,0.000741607195061389
-3.7663978196405474,0.0007427764783175111
-3.7624623238211683,0.0007438927788326125
-3.758526828001789,0.0007449705502299842
-3.75459133218241,0.0007460241207539464
-3.750655836363031,0.0007470676157510098
-3.7467203405436518,0.0007481148795694254
-3.7427848447242726,0.0007491793972672911
-3.7388493489048935,0.0007502742165397119
-3.7349138530855144,0.0007514118702862324
-3.7309783572661352,0.000752604300253451
-3.727042861446756,0.0007538627821982169
-3.723107365627377,0.0007551978530238382
-3.719171869807998,0.000756619240344418
-3.7152363739886187,0.0007581357949383305
-3.7113008781692396,0.0007597554265464518
-3.7073653823498605,0.0007614850434694356
-3.7034298865304813,0.0007633304964085805
-3.699494390711102,0.0007652965269846906
-3.695558894891723,0.0007673867213539923
-3.691623399072344,0.0007696034693241149
-3.687687903252965,0.0007719479293477813
-3.6837524074335857,0.0007744199997504406
-3.6798169116142065,0.0007770182965175093
-3.6758814157948274,0.0007797401379360663
-3.6719459199754483,0.0007825815363500799
-3.668010424156069,0.0007855371972506006
-3.66407492833669,0.0007886005258828654
-3.660139432517311,0.0007917636415063906
-3.6562039366979318,0.0007950173994019025
-3.6522684408785526,0.000798351420668024
-3.6483329450591735,0.0008017541298050157
-3.6443974492397944,0.0008052128000296532
-3.6404619534204152,0.0008087136062159481
-3.636526457601036,0.0008122416853044018
-3.632590961781657,0.0008157812039696899
-3.628655465962278,0.0008193154332869698
-3.6247199701428987,0.000822826830085055
-3.6207844743235196,0.0008262971246260631
-3.6168489785041404,0.0008297074142027752
-3.6129134826847613,0.0008330382622004848
-3.608977986865382,0.0008362698021257969
-3.605042491046003,0.0008393818460644409
-3.601106995226624,0.0008423539969947547
-3.597171499407245,0.0008451657643485169
-3.5932360035878657,0.0008477966821809693
-3.589300507768486,0.0008502264292892664
-3.585365011949107,0.0008524349505937903
-3.581429516129728,0.0008544025790847773
-3.5774940203103487,0.0008561101576217214
-3.5735585244909696,0.0008575391598691362
-3.5696230286715904,0.0008586718096507059
-3.5656875328522113,0.0008594911980058378
-3.561752037032832,0.00085998139724449
-3.557816541213453,0.0008601275713071774
-3.553881045394074,0.0008599160817581372
-3.5499455495746948,0.0008593345887622089
-3.5460100537553156,0.000858372146424459
-3.5420745579359365,0.000857019291903835
-3.5381390621165574,0.0008552681277499419
-3.5342035662971782,0.0008531123969509544
-3.530268070477799,0.0008505475502260662
-3.52633257465842,0.0008475708051411887
-3.522397078839041,0.0008441811966783674
-3.5184615830196617,0.0008403796189389162
-3.5145260872002826,0.0008361688577161949
-3.5105905913809035,0.0008315536137280394
-3.5066550955615243,0.0008265405163529749
-3.502719599742145,0.0008211381277764968
-3.498784103922766,0.0008153569375029951
-3.494848608103387,0.0008092093472510942
-3.490913112284008,0.0008027096463022326
-3.4869776164646287,0.0007958739774274956
-3.4830421206452495,0.0007887202935705634
-3.4791066248258704,0.0007812683055144487
-3.4751711290064913,0.0007735394208079199
-3.471235633187112,0.0007655566742747824
-3.467300137367733,0.0007573446504685333
-3.463364641548354,0.0007489293984785719
-3.4594291457289748,0.0007403383395266708
-3.4554936499095956,0.0007316001678280074
-3.4515581540902165,0.0007227447452180097
-3.4476226582708374,0.0007138029900732798
-3.4436871624514582,0.0007048067610757117
-3.439751666632079,0.0006957887363869472
-3.4358161708127,0.0006867822888144137
-3.431880674993321,0.0006778213575612813
-3.4279451791739417,0.0006689403171583827
-3.4240096833545626,0.0006601738441812388
-3.4200741875351834,0.0006515567823538945
-3.4161386917158043,0.0006431240066394756
-3.412203195896425,0.0006349102869108378
-3.4082677000770456,0.0006269501517858996
-3.4043322042576665,0.0006192777532022901
-3.4003967084382873,0.0006119267322906394
-3.396461212618908,0.0006049300870918258
-3.392525716799529,0.0005983200426458773
-3.38859022098015,0.0005921279239610579
-3.384654725160771,0.0005863840323515337
-3.3807192293413917,0.0005811175256113113
-3.3767837335220126,0.0005763563024693951
-3.3728482377026334,0.0005721268917479178
-3.3689127418832543,0.0005684543466229839
-3.364977246063875,0.0005653621443620987
-3.361041750244496,0.0005628720918904647
-3.357106254425117,0.0005610042375125495
-3.3531707586057378,0.000559776789091145
-3.3492352627863586,0.0005592060389646995
-3.3452997669669795,0.000559306295856989
-3.3413642711476004,0.0005600898240099854
-3.3374287753282212,0.0005615667897501287
-3.333493279508842,0.0005637452156707281
-3.329557783689463,0.0005666309425940571
-3.325622287870084,0.0005702275994508433
-3.3216867920507047,0.0005745365811935588
-3.3177512962313256,0.0005795570348376389
-3.3138158004119465,0.0005852858536987159
-3.3098803045925673,0.0005917176798762034
-3.305944808773188,0.000598844915004281
-3.302009312953809,0.0006066577392730603
-3.29807381713443,0.0006151441386954065
-3.294138321315051,0.0006242899405720269
-3.2902028254956717,0.0006340788570824143
-3.2862673296762925,0.0006444925369038079
-3.2823318338569134,0.0006555106247339293
-3.2783963380375343,0.0006671108285680113
-3.274460842218155,0.0006792689945514796
-3.270525346398776,0.0006919591892038945
-3.266589850579397,0.000705153788780298
-3.2626543547600177,0.0007188235755076142
-3.2587188589406386,0.0007329378404057688
-3.2547833631212595,0.0007474644923706128
-3.2508478673018804,0.0007623701731708996
-3.2469123714825012,0.000777620377978315
-3.242976875663122,0.0007931795810213263
-3.239041379843743,0.0008090113659258921
-3.235105884024364,0.0008250785602761171
-3.2311703882049847,0.0008413433739021814
-3.2272348923856056,0.0008577675403743448
-3.223299396566226,0.0008743124611604314
-3.219363900746847,0.0008909393518770001
-3.2154284049274677,0.0009076093900455759
-3.2114929091080886,0.0009242838637457812
-3.2075574132887095,0.0009409243205397641
-3.2036219174693303,0.0009574927160288446
-3.199686421649951,0.0009739515613922459
-3.195750925830572,0.0009902640692499506
-3.191815430011193,0.0010063942971872408
-3.187879934191814,0.0010223072882779988
-3.1839444383724347,0.001037969207947187
-3.1800089425530556,0.0010533474765190148
-3.1760734467336764,0.0010684108968099168
-3.1721379509142973,0.0010831297761402167
-3.168202455094918,0.0010974760421576524
-3.164266959275539,0.0011114233518904823
-3.16033146345616,0.0011249471934760003
-3.1563959676367808,0.0011380249800420073
-3.1524604718174016,0.0011506361352564484
-3.1485249759980225,0.0011627621700993004
-3.1445894801786434,0.001174386750456051
-3.1406539843592642,0.0011854957551797121
-3.136718488539885,0.001196077324317861
-3.132782992720506,0.0012061218972579599
-3.128847496901127,0.0012156222405967504
-3.1249120010817477,0.0012245734656029725
-3.1209765052623686,0.0012329730351990642
-3.1170410094429895,0.001240820760452406
-3.1131055136236103,0.0012481187866293375
-3.109170017804231,0.0012548715689282217
-3.105234521984852,0.0012610858380723011
-3.101299026165473,0.0012667705560067619
-3.097363530346094,0.0012719368620058291
-3.0934280345267147,0.0012765980095592114
-3.0894925387073355,0.0012807692944631355
-3.0855570428879564,0.0012844679746024379
-3.0816215470685773,0.0012877131819596307
-3.077686051249198,0.0012905258274424
-3.073750555429819,0.0012929284991644932
-3.06981505961044,0.001294945354859918
-3.0658795637910607,0.0012966020091488006
-3.0619440679716816,0.0012979254164058249
-3.0580085721523025,0.0012989437500128265
-3.0540730763329234,0.001299686278797639
-3.0501375805135442,0.0013001832414813452
-3.046202084694165,0.0013004657199658584
-3.0422665888747855,0.001300565512300074
-3.0383310930554064,0.0013005150061626905
-3.0343955972360273,0.0013003470536926132
-3.030460101416648,0.001300094848485929
-3.026524605597269,0.00129979180555808
-3.02258910977789,0.001299471445047079
-3.0186536139585107,0.0012991672804012894
-3.0147181181391316,0.0012989127117598448
-3.0107826223197525,0.0012987409251913745
-3.0068471265003733,0.0012986847984105127
-3.002911630680994,0.0012987768135383562
-2.998976134861615,0.0012990489774192607
-2.995040639042236,0.0012995327499438422
-2.991105143222857,0.0013002589807637605
-2.9871696474034777,0.0013012578547191914
-2.9832341515840985,0.0013025588462274723
-2.9792986557647194,0.0013041906828095348
-2.9753631599453403,0.0013061813178581044
-2.971427664125961,0.001308557912675777
-2.967492168306582,0.0013113468277350798
-2.963556672487203,0.0013145736230376764
-2.9596211766678238,0.0013182630673747864
-2.9556856808484446,0.0013224391562156462
-2.9517501850290655,0.001327125137881302
-2.9478146892096864,0.0013323435475865592
-2.9438791933903072,0.001338116248870494
-2.939943697570928,0.0013444644818672927
-2.936008201751549,0.0013514089178128519
-2.93207270593217,0.0013589697191234915
-2.9281372101127907,0.0013671666043341898
-2.9242017142934116,0.001376018917135395
-2.9202662184740324,0.001385545698710286
-2.9163307226546533,0.0013957657625362427
-2.912395226835274,0.0014066977707881609
-2.908459731015895,0.001418360311459796
-2.904524235196516,0.0014307719753021836
-2.900588739377137,0.0014439514316736124
-2.8966532435577577,0.0014579175023911178
-2.8927177477383785,0.001472689232682775
-2.8887822519189994,0.0014882859583524519
-2.8848467560996203,0.0015047273682895837
-2.880911260280241,0.0015220335614850936
-2.876975764460862,0.0015402250977498838
-2.873040268641483,0.0015593230413739403
-2.8691047728221037,0.0015793489970135008
-2.8651692770027246,0.0016003251371493263
-2.8612337811833455,0.0016222742205195886
-2.857298285363966,0.0016452196009995937
-2.8533627895445868,0.0016691852264717963
-2.8494272937252076,0.0016941956273079442
-2.8454917979058285,0.0017202758941671087
-2.8415563020864494,0.0017474516448982916
-2.8376208062670703,0.0017757489804253596
-2.833685310447691,0.0018051944295858213
-2.829749814628312,0.0018358148829838786
-2.825814318808933,0.0018676375160186498
-2.8218788229895537,0.0019006897013386648
-2.8179433271701746,0.0019349989110732518
-2.8140078313507955,0.001970592609283353
-2.8100723355314163,0.0020074981351665827
-2.806136839712037,0.0020457425776461285
-2.802201343892658,0.002085352642054332
-2.798265848073279,0.002126354509710847
-2.7943303522539,0.0021687736912715076
-2.7903948564345207,0.0022126348747983915
-2.7864593606151415,0.002257961769571392
-2.7825238647957624,0.002304776946720804
-2.7785883689763833,0.0023531016778169586
-2.774652873157004,0.0024029557725997394
-2.770717377337625,0.0024543574170686616
-2.766781881518246,0.0025073230131861593
-2.7628463856988668,0.002561867021467608
-2.7589108898794876,0.002618001807743759
-2.7549753940601085,0.0026757374953847828
-2.7510398982407294,0.0027350818242679806
-2.7471044024213502,0.002796040017754929
-2.743168906601971,0.0028586146589182626
-2.739233410782592,0.0029228055772206815
-2.735297914963213,0.002988609746805218
-2.7313624191438337,0.0030560211975004074
-2.7274269233244546,0.0031250309395782425
-2.7234914275050754,0.0031956269032327976
-2.7195559316856963,0.0032677938936642517
-2.715620435866317,0.003341513562564704
-2.711684940046938,0.0034167643967057924
-2.707749444227559,0.0034935217242252903
-2.70381394840818,0.0035717577391004528
-2.6998784525888007,0.0036514415441828117
-2.6959429567694215,0.0037325392130485267
-2.6920074609500424,0.0038150138707977524
-2.6880719651306633,0.0038988257938107514
-2.684136469311284,0.0039839325283410505
-2.680200973491905,0.004070289027698678
-2.6762654776725254,0.004157847807647649
-2.6723299818531463,0.004246559119515561
-2.668394486033767,0.004336371140386194
-2.664458990214388,0.004427230179626273
-2.660523494395009,0.004519080900873967
-2.6565879985756298,0.0046118665585075415
-2.6526525027562506,0.004705529247498112
-2.6487170069368715,0.0048000101654524785
-2.6447815111174924,0.00489524988555113
-2.6408460152981132,0.004991188639003195
-2.636910519478734,0.005087766605555526
-2.632975023659355,0.005184924210525212
-2.629039527839976,0.0052826024267629175
-2.6251040320205967,0.0053807430799017175
-2.6211685362012176,0.005479289155206145
-2.6172330403818385,0.005578185104306233
-2.6132975445624593,0.0056773771500799285
-2.60936204874308,0.0057768135879426585
-2.605426552923701,0.005876445081801598
-2.601491057104322,0.0059762249529504395
-2.597555561284943,0.006076109460202813
-2.5936200654655637,0.0061760580696014165
-2.5896845696461845,0.006276033712085828
-2.5857490738268054,0.006376003027559481
-2.5818135780074263,0.006475936593866166
-2.577878082188047,0.006575809139261306
-2.573942586368668,0.006675599737052278
-2.570007090549289,0.006775291981175817
-2.5660715947299098,0.006874874141584698
-2.5621360989105306,0.006974339298425995
-2.5582006030911515,0.00707368545410943
-2.5542651072717724,0.007172915622489354
-2.5503296114523932,0.007272037894508674
-2.546394115633014,0.0073710654797868765
-2.542458619813635,0.007470016723768248
-2.538523123994256,0.007568915100183992
-2.5345876281748767,0.007667789178720534
-2.5306521323554976,0.0077666725679258666
-2.5267166365361184,0.007865603833523659
-2.5227811407167393,0.007964626392443788
-2.51884564489736,0.008063788383011767
-2.514910149077981,0.00816314251187375
-2.510974653258602,0.00826274587835972
