Values,Density
-4.660417635936253,2.2907130878269122e-7
-4.655045971671826,2.3470799881408766e-7
-4.649674307407398,2.461351559512881e-7
-4.6443026431429715,2.635570655051822e-7
-4.638930978878545,2.872837078227164e-7
-4.633559314614117,3.177337393744928e-7
-4.62818765034969,3.5543847559660335e-7
-4.622815986085263,4.010468604154216e-7
-4.6174443218208365,4.5533140399789396e-7
-4.612072657556409,5.191950640526244e-7
-4.606700993291982,5.936790415383975e-7
-4.601329329027555,6.799714531713352e-7
-4.5959576647631275,7.794168379038346e-7
-4.590586000498701,8.935264419196454e-7
-4.585214336234274,1.023989220333421e-6
-4.579842671969846,1.172683480099579e-6
-4.574471007705419,1.3416890776996038e-6
-4.5690993434409926,1.5333000701611699e-6
-4.563727679176566,1.7500377046675286e-6
-4.558356014912138,1.9946636147794017e-6
-4.552984350647711,2.270193077080762e-6
-4.547612686383284,2.5799081605493157e-6
-4.542241022118857,2.9273705877408407e-6
-4.53686935785443,3.316434104436161e-6
-4.531497693590003,3.7512561384261955e-6
-4.526126029325575,4.236308508140385e-6
-4.520754365061149,4.776386926072518e-6
-4.515382700796722,5.376619022806617e-6
-4.510011036532295,6.0424706038175735e-6
-4.504639372267867,6.779749836469118e-6
-4.4992677080034404,7.594609053973578e-6
-4.493896043739014,8.49354385372425e-6
-4.488524379474586,9.483389161537431e-6
-4.483152715210159,1.0571311933479932e-5
-4.477781050945732,1.1764800166298717e-5
-4.472409386681305,1.30716478982211e-5
-4.467037722416878,1.4499935890411458e-5
-4.461666058152451,1.6058007700665844e-5
-4.456294393888024,1.775444088241221e-5
-4.4509227296235965,1.9598013073343634e-5
-4.44555106535917,2.1597662773646664e-5
-4.440179401094743,2.376244465937538e-5
-4.434807736830315,2.6101479321194443e-5
-4.429436072565888,2.8623897383627667e-5
-4.4240644083014615,3.133877801314924e-5
-4.418692744037034,3.425508190190579e-5
-4.413321079772607,3.73815788811023e-5
-4.40794941550818,4.0726770403742146e-5
-4.402577751243753,4.429880721756527e-5
-4.397206086979326,4.81054026381586e-5
-4.391834422714899,5.215374192192937e-5
-4.386462758450472,5.6450388331574786e-5
-4.381091094186044,6.10011865775327e-5
-4.3757194299216176,6.581116440967927e-5
-4.370347765657191,7.088443322087953e-5
-4.364976101392763,7.622408860884222e-5
-4.359604437128336,8.183211191782266e-5
-4.354232772863909,8.77092738533515e-5
-4.348861108599482,9.3855041323046e-5
-4.343489444335055,0.00010026748870467506
-4.338117780070628,0.0001069432147831062
-4.332746115806201,0.00011387726661666459
-4.327374451541774,0.00012106307160418897
-4.322002787277347,0.00012849237901536859
-4.31663112301292,0.0001361552122184223
-4.311259458748492,0.0001440398327979403
-4.3058877944840654,0.00015213271769139863
-4.300516130219639,0.00016041855039027053
-4.295144465955211,0.0001688802271523765
-4.289772801690784,0.00017749887905162132
-4.284401137426357,0.0001862539105558711
-4.2790294731619305,0.000195123055167723
-4.273657808897503,0.00020408244849683121
-4.268286144633076,0.0002131067189467331
-4.262914480368649,0.00022216909600697443
-4.2575428161042215,0.00023124153593796076
-4.252171151839795,0.0002402948644222927
-4.246799487575368,0.00024929893554628824
-4.24142782331094,0.00025822280625628635
-4.236056159046513,0.00026703492522140576
-4.2306844947820865,0.0002757033348282992
-4.22531283051766,0.0002841958848285239
-4.219941166253232,0.0002924804559752969
-4.214569501988805,0.00030052519180825965
-4.209197837724378,0.0003082987365920706
-4.203826173459951,0.00031577047727378293
-4.198454509195524,0.00032291078721471966
-4.193082844931097,0.0003296912693615192
-4.187711180666669,0.0003360849964594015
-4.1823395164022426,0.00034206674587807656
-4.176967852137816,0.0003476132266172216
-4.171596187873389,0.00035270329608136364
-4.166224523608961,0.00035731816427465174
-4.160852859344534,0.0003614415831473053
-4.155481195080108,0.000365060018944173
-4.15010953081568,0.0003681628055458644
-4.144737866551253,0.00037074227696273776
-4.139366202286826,0.0003727938773360612
-4.133994538022399,0.0003743162470124378
-4.128622873757972,0.0003753112834937178
-4.123251209493545,0.0003757841763120662
-4.117879545229118,0.0003757434151414607
-4.11250788096469,0.00037520077072866753
-4.107136216700264,0.0003741712485021559
-4.101764552435837,0.0003726730149956198
-4.096392888171409,0.0003707272974997483
-4.091021223906982,0.0003683582576275435
-4.0856495596425555,0.00036559283974232915
-4.080277895378128,0.00036246059544731146
-4.074906231113701,0.0003589934855770527
-4.069534566849274,0.0003552256613471444
-4.0641629025848465,0.00035119322652375773
-4.05879123832042,0.0003469339826532303
-4.053419574055993,0.00034248715954812714
-4.048047909791566,0.0003378931333631735
-4.042676245527138,0.00033319313469952483
-4.0373045812627115,0.00032842894926245203
-4.031932916998285,0.00032364261365297464
-4.026561252733857,0.00031887610890850293
-4.02118958846943,0.00031417105441544635
-4.015817924205003,0.0003095684047996067
-4.010446259940576,0.0003051081523622601
-4.005074595676149,0.00030082903756847856
-3.999702931411722,0.00029676827001302863
-3.994331267147295,0.00029296126218719687
-3.988959602882868,0.0002894413782536104
-3.9835879386184407,0.0002862396998988964
-3.9782162743540135,0.0002833848111883086
-3.9728446100895867,0.00028090260418017765
-3.9674729458251594,0.0002788161068879025
-3.9621012815607326,0.0002771453349909303
-3.9567296172963053,0.00027590716850528496
-3.951357953031878,0.0002751152544214208
-3.9459862887674513,0.00027477993611443874
-3.940614624503024,0.0002749082101166783
-3.9352429602385968,0.0002755037106304953
-3.92987129597417,0.0002765667219375295
-3.9244996317097427,0.0002780942186440677
-3.919127967445316,0.0002800799334784082
-3.9137563031808886,0.00028251445213828275
-3.9083846389164614,0.0002853853344656765
-3.9030129746520346,0.00028867726101099167
-3.8976413103876073,0.00029237220383653006
-3.8922696461231805,0.0002964496202026434
-3.8868979818587532,0.0003008866675796029
-3.881526317594326,0.000305658438237294
-3.876154653329899,0.0003107382114835161
-3.870782989065472,0.0003160977214530236
-3.865411324801045,0.0003217074381939855
-3.860039660536618,0.00032753685965805635
-3.8546679962721906,0.0003335548120806109
-3.8492963320077638,0.0003397297561336249
-3.8439246677433365,0.00034603009615484515
-3.8385530034789097,0.00035242448969836915
-3.8331813392144825,0.0003588821546221116
-3.827809674950055,0.000365373170919267
-3.8224380106856284,0.0003718687745265514
-3.817066346421201,0.0003783416403901757
-3.8116946821567743,0.00038476615215331245
-3.806323017892347,0.00039111865593878525
-3.80095135362792,0.00039737769583705895
-3.795579689363493,0.0004035242288839974
-3.7902080250990657,0.00040954181750174623
-3.784836360834639,0.00041541679760417893
-3.7794646965702117,0.0004211384208103741
-3.7740930323057844,0.0004266989694796802
-3.7687213680413576,0.00043209384356655833
-3.7633497037769303,0.0004373216185952211
-3.7579780395125035,0.0004423840743669194
-3.7526063752480763,0.0004472861943324441
-3.747234710983649,0.00045203613588278013
-3.741863046719222,0.0004566451721372128
-3.736491382454795,0.00046112760611467796
-3.731119718190368,0.00046550065848523225
-3.725748053925941,0.0004697843303793775
-3.7203763896615136,0.0004740012430039242
-3.715004725397087,0.00047817645605394143
-3.7096330611326596,0.00048233726712235137
-3.7042613968682327,0.0004865129944930102
-3.6988897326038055,0.0004907347458463912
-3.6935180683393782,0.0004950351755171056
-3.6881464040749514,0.0004994482330090005
-3.682774739810524,0.000504008905504047
-3.6774030755460974,0.0005087529570846211
-3.67203141128167,0.0005137166673369331
-3.666659747017243,0.000518936571905354
-3.661288082752816,0.0005244492074384516
-3.6559164184883888,0.0005302908631946296
-3.6505447542239615,0.0005364973413764101
-3.6451730899595347,0.0005431037280312495
-3.6398014256951075,0.0005501441761017328
-3.6344297614306806,0.0005576517019348914
-3.6290580971662534,0.0005656579962695363
-3.623686432901826,0.0005741932504266106
-3.6183147686373993,0.0005832859981245303
-3.612943104372972,0.0005929629730466457
-3.6075714401085452,0.0006032489819987052
-3.602199775844118,0.000614166793221807
-3.5968281115796907,0.0006257370391732908
-3.591456447315264,0.0006379781328589573
-3.5860847830508367,0.0006509061966044061
-3.58071311878641,0.0006645350019870294
-3.5753414545219826,0.0006788759195245214
-3.5699697902575553,0.0006939378766309401
-3.5645981259931285,0.000709727322303344
-3.5592264617287013,0.0007262481970031903
-3.5538547974642745,0.0007435019062366072
-3.548483133199847,0.0007614872964211705
-3.54311146893542,0.0007802006317518539
-3.537739804670993,0.0007996355709395248
-3.532368140406566,0.0008197831428946589
-3.526996476142139,0.0008406317206541419
-3.521624811877712,0.0008621669931058451
-3.5162531476132846,0.0008843719343372691
-3.5108814833488577,0.0009072267707250087
-3.5055098190844305,0.0009307089461810802
-3.5001381548200037,0.0009547930862667531
-3.4947664905555764,0.000979450962184325
-3.489394826291149,0.0010046514559388098
-3.4840231620267224,0.001030360528222557
-3.478651497762295,0.001056541190823615
-3.4732798334978683,0.00108315348556072
-3.467908169233441,0.0011101544719266943
-3.4625365049690138,0.0011374982257527227
-3.457164840704587,0.0011651358512922566
-3.4517931764401597,0.0011930155091644107
-3.446421512175733,0.001221082462580611
-3.4410498479113056,0.0012492791442158258
-3.4356781836468784,0.0012775452459626024
-3.4303065193824516,0.0013058178336350784
-3.4249348551180243,0.0013340314884646154
-3.4195631908535975,0.0013621184769519873
-3.4141915265891702,0.0013900089503193075
-3.408819862324743,0.0014176311744416442
-3.403448198060316,0.0014449117907315012
-3.398076533795889,0.001471776108020656
-3.392704869531462,0.0014981484250169569
-3.387333205267035,0.0015239523824417955
-3.3819615410026076,0.0015491113434585035
-3.376589876738181,0.0015735488005123172
-3.3712182124737535,0.0015971888062144557
-3.3658465482093263,0.001619956425425506
-3.3604748839448995,0.0016417782052414731
-3.355103219680472,0.0016625826591598891
-3.3497315554160454,0.0016823007613141344
-3.344359891151618,0.001700866446320698
-3.338988226887191,0.0017182171099872912
-3.333616562622764,0.0017342941058940131
-3.328244898358337,0.00174904323268045
-3.32287323409391,0.0017624152067597237
-3.3175015698294827,0.001774366115142853
-3.3121299055650555,0.0017848578430774142
-3.3067582413006287,0.0017938584713151906
-3.3013865770362014,0.0018013426379910186
-3.2960149127717746,0.0018072918603459082
-3.2906432485073474,0.001811694811842457
-3.28527158424292,0.0018145475506053414
-3.2798999199784933,0.001815853695566045
-3.274528255714066,0.0018156245471977106
-3.269156591449639,0.0018138791502813282
-3.263784927185212,0.0018106442967488054
-3.2584132629207847,0.0018059544672889049
-3.253041598656358,0.0017998517110711188
-3.2476699343919306,0.0017923854636349252
-3.242298270127504,0.0017836123036952243
-3.2369266058630766,0.0017735956503174195
-3.2315549415986493,0.0017624054026172207
-3.2261832773342225,0.0017501175248193022
-3.2208116130697952,0.0017368135801637367
-3.2154399488053684,0.0017225802177700763
-3.210068284540941,0.0017075086171429053
-3.204696620276514,0.0016916938955245627
-3.199324956012087,0.0016752344837648297
-3.19395329174766,0.0016582314767694868
-3.188581627483233,0.0016407879649138139
-3.183209963218806,0.0016230083530479867
-3.1778382989543785,0.0016049976738854005
-3.1724666346899517,0.0015868609026362438
-3.1670949704255245,0.001568702279743709
-3.1617233061610976,0.0015506246484752939
-3.1563516418966704,0.0015327288139427861
-3.150979977632243,0.0015151129298495824
-3.1456083133678163,0.0014978719189186838
-3.140236649103389,0.0014810969325209419
-3.1348649848389623,0.0014648748545297964
-3.129493320574535,0.001449287853859196
-3.1241216563101077,0.0014344129895246583
-3.118749992045681,0.0014203218713954519
-3.1133783277812537,0.001407080379095052
-3.1080066635168264,0.0013947484407715177
-3.1026349992523996,0.0013833798726980845
-3.0972633349879723,0.0013730222798989944
-3.0918916707235455,0.0013637170172307173
-3.0865200064591183,0.0013554992095977103
-3.081148342194691,0.0013483978292549437
-3.075776677930264,0.0013424358274569254
-3.070405013665837,0.0013376303170638953
-3.06503334940141,0.0013339928021243869
-3.059661685136983,0.0013315294499168795
-3.0542900208725556,0.0013302414004774665
-3.048918356608129,0.0013301251082497578
-3.0435466923437016,0.0013311727101946585
-3.0381750280792748,0.0013333724144789644
-3.0328033638148475,0.0013367089037341906
-3.0274316995504202,0.001341163746842844
-3.0220600352859934,0.0013467158132613455
-3.016688371021566,0.001353341684034351
-3.0113167067571394,0.001361016053886846
-3.005945042492712,0.001369712119092703
-3.000573378228285,0.0013794019462129575
-2.995201713963858,0.0013900568172573458
-2.989830049699431,0.0014016475473514756
-2.984458385435004,0.0014141447715720623
-2.9790867211705767,0.0014275191982384416
-2.9737150569061495,0.0014417418266147036
-2.9683433926417226,0.001456784127655486
-2.9629717283772954,0.0014726181871359684
-2.9576000641128686,0.0014892168112008441
-2.9522283998484413,0.0015065535950631453
-2.946856735584014,0.0015246029562518415
-2.9414850713195873,0.0015433401344467912
-2.93611340705516,0.001562741160536188
-2.930741742790733,0.001582782798077803
-2.925370078526306,0.0016034424608265957
-2.9199984142618787,0.0016246981104101055
-2.914626749997452,0.0016465281385705938
-2.9092550857330246,0.0016689112386524402
-2.903883421468598,0.0016918262711878712
-2.8985117572041705,0.00171525212851803
-2.8931400929397433,0.0017391676033810949
-2.8877684286753165,0.0017635512663064096
-2.882396764410889,0.0017883813564690265
-2.8770251001464624,0.0018136356903890177
-2.871653435882035,0.0018392915925112552
-2.866281771617608,0.001865325851272942
-2.860910107353181,0.0018917147037707388
-2.855538443088754,0.0019184338515810667
-2.850166778824327,0.0019454585096791432
-2.8447951145598998,0.0019727634897479807
-2.8394234502954725,0.0020003233184858887
-2.8340517860310457,0.0020281123908156284
-2.8286801217666184,0.002056105157185989
-2.823308457502191,0.0020842763434438666
-2.8179367932377644,0.0021126012010629913
-2.812565128973337,0.002141055784842652
-2.8071934647089103,0.0021696172545633136
-2.801821800444483,0.0021982641965040545
-2.796450136180056,0.0022269769602050876
-2.791078471915629,0.0022557380054104015
-2.7857068076512017,0.002284532253749222
-2.780335143386775,0.0023133474394305825
-2.7749634791223476,0.0023421744530284228
-2.7695918148579204,0.0023710076723338497
-2.7642201505934936,0.0023998452742554285
-2.7588484863290663,0.0024286895218465984
-2.7534768220646395,0.002457547020745632
-2.7481051578002123,0.0024864289396161407
-2.742733493535785,0.0025153511895772973
-2.737361829271358,0.0025443345581059873
-2.731990165006931,0.002573404793472886
-2.726618500742504,0.002602592636430215
-2.721246836478077,0.002631933796598339
-2.7158751722136496,0.0026614688717794682
-2.710503507949223,0.0026912432092648444
-2.7051318436847955,0.0027213067090634327
-2.6997601794203687,0.002751713569874914
-2.6943885151559415,0.002782521979523264
-2.689016850891514,0.002813793752461151
-2.6836451866270874,0.002845593917826586
-2.67827352236266,0.0028779902623706777
-2.6729018580982333,0.0029110528333660263
-2.667530193833806,0.0029448534073351212
-2.662158529569379,0.0029794649310944804
-2.656786865304952,0.0030149609421832035
-2.6514152010405247,0.0030514149762235765
-2.646043536776098,0.0030888999691362773
-2.6406718725116707,0.0031274876623987036
-2.6353002082472434,0.003167248019684099
-2.6299285439828166,0.0032082486632509233
-2.6245568797183894,0.0032505543383580526
-2.6191852154539625,0.0032942264137710564
-2.6138135511895353,0.0033393224260896415
-2.608441886925108,0.0033858956751779273
-2.603070222660681,0.003433994877417551
-2.597698558396254,0.0034836638828388902
-2.592326894131827,0.0035349414614257793
-2.5869552298674,0.0035878611630416196
-2.5815835656029726,0.003642451254506393
-2.576211901338546,0.0036987347363715353
-2.5708402370741186,0.0037567294409110857
-2.5654685728096918,0.003816448211783674
-2.5600969085452645,0.003877899164739393
-2.5547252442808372,0.003941086027658365
-2.5493535800164104,0.004006008557135218
-2.543981915751983,0.004072663027773794
-2.538610251487556,0.0041410427893526155
-2.533238587223129,0.004211138886066938
-2.527866922958702,0.0042829407311726075
-2.522495258694275,0.004356436829553875
-2.517123594429848,0.004431615540028341
-2.5117519301654205,0.004508465868594429
-2.5063802659009937,0.004586978283330732
-2.5010086016365665,0.004667145541279942
-2.4956369373721397,0.004748963517394428
-2.4902652731077124,0.004832432025495707
-2.484893608843285,0.004917555621205272
-2.4795219445788583,0.0050043443769382245
-2.474150280314431,0.005092814619317439
-2.4687786160500043,0.005182989619759354
-2.463406951785577,0.005274900229496102
-2.4580352875211497,0.005368585450933425
-2.452663623256723,0.005464092937983056
-2.4472919589922957,0.005561479418852433
-2.441920294727869,0.005660811035704615
-2.4365486304634416,0.00576216359661335
-2.4311769661990144,0.005865622736313768
-2.4258053019345875,0.005971283983376076
-2.4204336376701603,0.006079252732597455
-2.4150619734057335,0.0061896441225928675
-2.409690309141306,0.0063025828197601705
-2.404318644876879,0.0064182027109786904
-2.398946980612452,0.006536646508558501
-2.393575316348025,0.006658065272071016
-2.388203652083598,0.00678261785275034
-2.382831987819171,0.006910470267132887
-2.3774603235547436,0.007041795007498436
-2.3720886592903168,0.007176770297460264
-2.3667169950258895,0.0073155793017266185
-2.3613453307614627,0.007458409299595008
-2.3559736664970354,0.007605450832147163
-2.350602002232608,0.007756896833365411
-2.3452303379681814,0.00791294175549568
-2.339858673703754,0.008073780698924116
-2.3344870094393273,0.008239608556616984
-2.3291153451749,0.008410619182798007
-2.323743680910473,0.0085870045950011
-2.318372016646046,0.00876895421795159
-2.3130003523816187,0.008956654176900551
-2.307628688117192,0.009150286647076185
-2.3022570238527647,0.009350029264837814
-2.2968853595883374,0.009556054604937553
-2.2915136953239106,0.009768529727032405
-2.2861420310594833,0.009987615793264445
-2.2807703667950565,0.010213467757363218
-2.2753987025306293,0.01044623412434563
-2.270027038266202,0.010686056778524217
-2.264655374001775,0.010933070876203599
-2.259283709737348,0.011187404798183635
-2.2539120454729207,0.011449180156015738
-2.248540381208494,0.011718511844903808
-2.2431687169440666,0.011995508135233722
-2.23779705267964,0.012280270793967176
-2.2324253884152125,0.01257289522657904
-2.2270537241507853,0.012873470629864003
-2.2216820598863585,0.013182080145801002
-2.216310395621931,0.013498801006760552
-2.2109387313575044,0.013823704662667063
-2.205567067093077,0.014156856881295667
-2.20019540282865,0.01449831781368252
-2.194823738564223,0.01484814201765245
-2.189452074299796,0.015206378433703954
-2.184080410035369,0.015573070308921376
-2.1787087457709418,0.015948255066181798
-2.1733370815065145,0.016331964117665104
-2.1679654172420877,0.01672422262352226
-2.1625937529776604,0.017125049198478334
-2.1572220887132336,0.01753445557109937
-2.1518504244488064,0.01795244620239449
-2.146478760184379,0.018379017872316765
-2.1411070959199523,0.018814159244516782
-2.135735431655525,0.019257850421355215
-2.1303637673910982,0.019710062502643403
-2.124992103126671,0.020170757162819308
-2.1196204388622437,0.020639886262238272
-2.114248774597817,0.021117391508929384
-2.1088771103333896,0.021603204187509432
-2.103505446068963,0.02209724497193547
-2.0981337818045356,0.022599423838391496
-2.0927621175401083,0.02310964009384004
-2.0873904532756815,0.023627782534614755
-2.0820187890112543,0.024153729747899727
-2.0766471247468274,0.024687350567037324
-2.0712754604824,0.025228504689357535
-2.065903796217973,0.025777043462654477
-2.060532131953546,0.026332810843582594
-2.055160467689119,0.0268956445281578
