Values,Density
-7.39006349989549,2.1855658233205233e-7
-7.383320161652517,2.2657176004803325e-7
-7.376576823409542,2.428156141154325e-7
-7.369833485166569,2.6771826580618274e-7
-7.363090146923596,3.019326951236856e-7
-7.356346808680621,3.463440581552568e-7
-7.349603470437648,4.02082044992369e-7
-7.342860132194675,4.705362104118205e-7
-7.3361167939517005,5.533741939678372e-7
-7.329373455708727,6.525627130327116e-7
-7.322630117465754,7.703911819867404e-7
-7.3158867792227795,9.094977725943032e-7
-7.309143440979806,1.0728976828633385e-6
-7.302400102736833,1.2640133346397686e-6
-7.2956567644938595,1.4867061575163376e-6
-7.288913426250885,1.7453095566832832e-6
-7.282170088007912,2.0446625886849645e-6
-7.2754267497649385,2.3901437958551153e-6
-7.268683411521964,2.787704568463223e-6
-7.261940073278991,3.243901322530496e-6
-7.255196735036018,3.7659256951205755e-6
-7.248453396793043,4.361631875671179e-6
-7.24171005855007,5.039560110331465e-6
-7.234966720307097,5.808955340469435e-6
-7.228223382064122,6.679779867180269e-6
-7.221480043821149,7.662718876033647e-6
-7.214736705578176,8.769177614526003e-6
-7.2079933673352015,1.0011268986254152e-5
-7.201250029092228,1.1401790322052019e-5
-7.194506690849255,1.2954188106345521e-5
-7.1877633526062805,1.4682509483221473e-5
-7.181020014363307,1.660133944292319e-5
-7.174276676120334,1.8725722696483205e-5
-7.16753333787736,2.1071069393044373e-5
-7.160789999634386,2.36530440102245e-5
-7.154046661391413,2.6487436966204925e-5
-7.1473033231484395,2.9590018755191322e-5
-7.140559984905465,3.297637669559886e-5
-7.133816646662492,3.666173470329506e-5
-7.127073308419519,4.0660756852096275e-5
-7.120329970176544,4.4987335863666544e-5
-7.113586631933571,4.9654368062826415e-5
-7.106843293690598,5.467351674890916e-5
-7.100099955447623,6.005496634444926e-5
-7.09335661720465,6.580717009859599e-5
-7.086613278961677,7.193659451752363e-5
-7.0798699407187025,7.844746407141209e-5
-7.073126602475729,8.534151006577007e-5
-7.066383264232756,9.261772786004624e-5
-7.0596399259897815,0.000100272146852428
-7.052896587746808,0.00010829761782344197
-7.046153249503835,0.00011668362232010454
-7.039409911260861,0.00012541610877379525
-7.032666573017887,0.00013447735995811283
-7.025923234774914,0.00014384589620911742
-7.01917989653194,0.0001534964185448389
-7.012436558288966,0.00016339979543221993
-7.005693220045993,0.00017352309645616779
-6.998949881803019,0.00018382967555752652
-6.992206543560045,0.000194279305823504
-6.985463205317072,0.0002048283670502242
-6.978719867074099,0.00021543008646095901
-6.971976528831124,0.00022603483207383687
-6.965233190588151,0.0002365904572796066
-6.958489852345178,0.0002470426942397172
-6.9517465141022035,0.00025733559275933904
-6.94500317585923,0.0002674120003606506
-6.938259837616257,0.00027721407838516426
-6.9315164993732825,0.000286683848131436
-6.924773161130309,0.000295763760286033
-6.918029822887336,0.00030439728027190083
-6.911286484644362,0.00031252948161517025
-6.904543146401388,0.00032010763905795936
-6.897799808158415,0.0003270818129120154
-6.891056469915441,0.00033340541608292695
-6.884313131672467,0.0003390357552876186
-6.877569793429494,0.0003439345382570333
-6.87082645518652,0.00034806833914172164
-6.864083116943546,0.00035140901492849985
-6.857339778700573,0.00035393406641223354
-6.850596440457599,0.0003556269381366946
-6.843853102214625,0.0003564772527053957
-6.837109763971652,0.00035648097594234707
-6.830366425728679,0.00035564051053768933
-6.8236230874857045,0.0003539647170072886
-6.816879749242731,0.0003514688620153937
-6.810136410999758,0.00034817449531376887
-6.8033930727567835,0.0003441092577264812
-6.79664973451381,0.0003393066237162047
-6.789906396270837,0.00033380558309152597
-6.783163058027863,0.0003276502673293345
-6.776419719784889,0.00032088952676778
-6.769676381541916,0.0003135764655691903
-6.762933043298942,0.00030576794182861355
-6.756189705055968,0.0002975240405264437
-6.749446366812995,0.0002889075271661906
-6.742703028570021,0.00027998328992136223
-6.735959690327047,0.0002708177779290194
-6.729216352084074,0.00026147844303130857
-6.7224730138411,0.000252033191784691
-6.715729675598126,0.00024254985395548434
-6.708986337355153,0.00023309567300792283
-6.702242999112179,0.00022373682330208838
-6.6954996608692054,0.00021453795786238739
-6.688756322626232,0.00020556178969430988
-6.682012984383259,0.00019686870872388795
-6.6752696461402845,0.0001885164355555219
-6.668526307897311,0.00018055971239280821
-6.661782969654338,0.00017305003068399105
-6.655039631411364,0.0001660353943443646
-6.64829629316839,0.00015956011679701954
-6.641552954925417,0.00015366464957408676
-6.634809616682443,0.00014838543983704267
-6.628066278439469,0.00014375481392393807
-6.621322940196496,0.00013980088390498635
-6.614579601953522,0.00013654747413405222
-6.607836263710548,0.00013401406490957252
-6.601092925467575,0.00013221575060454877
-6.594349587224601,0.00013116320996694325
-6.587606248981627,0.00013086268673122986
-6.580862910738654,0.00013131597918233234
-6.57411957249568,0.0001325204378754552
-6.5673762342527064,0.00013446897129777702
-6.560632896009733,0.00013715005985925205
-6.553889557766759,0.0001405477791827231
-6.5471462195237855,0.00014464183421154797
-6.540402881280812,0.0001494076061517649
-6.533659543037838,0.0001548162146824024
-6.526916204794865,0.00016083459820093182
-6.520172866551891,0.00016742561509472398
-6.513429528308918,0.00017454816913634041
-6.506686190065944,0.00018215736208564148
-6.49994285182297,0.00019020467643766914
-6.493199513579997,0.00019863819097640928
-6.486456175337023,0.00020740283140080473
-6.479712837094049,0.00021644065776305066
-6.472969498851076,0.00022569118983666037
-6.466226160608102,0.00023509177080688337
-6.459482822365128,0.0002445779688796598
-6.452739484122155,0.0002540840155482657
-6.445996145879181,0.0002635432783651345
-6.439252807636207,0.00027288876516676913
-6.432509469393234,0.00028205365580440817
-6.42576613115026,0.00029097185658469304
-6.4190227929072865,0.0002995785718269278
-6.412279454664313,0.0003078108862372003
-6.405536116421339,0.0003156083511914251
-6.398792778178366,0.00032291356753975237
-6.392049439935392,0.0003296727571968916
-6.385306101692418,0.00033583631559033766
-6.378562763449445,0.00034135933700095433
-6.371819425206471,0.0003462021049569497
-6.365076086963498,0.00035033054012898607
-6.358332748720524,0.0003537165986211496
-6.35158941047755,0.00035633861414637036
-6.344846072234577,0.0003581815783064157
-6.338102733991603,0.0003592373540505303
-6.331359395748629,0.00035950481834028797
-6.324616057505656,0.0003589899310841582
-6.317872719262682,0.00035770572849887217
-6.311129381019708,0.0003556722401788434
-6.304386042776735,0.00035291633029086583
-6.297642704533761,0.00034947146442636245
-6.2908993662907875,0.0003453774047215072
-6.284156028047814,0.0003406798368693689
-6.27741268980484,0.00033542993357946194
-6.2706693515618666,0.0003296838598747312
-6.263926013318893,0.0003235022263311377
-6.257182675075919,0.0003169494969653755
-6.250439336832946,0.00031009335893570494
-6.243695998589972,0.00030300406155679693
-6.236952660346998,0.00029575373232440527
-6.230209322104025,0.00028841567771765997
-6.223465983861051,0.0002810636764927349
-6.216722645618077,0.0002737712730218958
-6.209979307375104,0.0002666110779672437
-6.20323596913213,0.0002596540832348962
-6.196492630889157,0.00025296899773783604
-6.189749292646183,0.0002466216100299179
-6.183005954403209,0.0002406741833650139
-6.176262616160236,0.00023518488820870043
-6.169519277917262,0.0002302072766936017
-6.1627759396742885,0.0002257898029764671
-6.156032601431315,0.00022197539293732083
-6.149289263188341,0.0002188010661655776
-6.1425459249453676,0.00021629761271012293
-6.135802586702394,0.000214489326631713
-6.12905924845942,0.00021339379799015235
-6.122315910216447,0.00021302176452147464
-6.115572571973473,0.00021337702390485103
-6.108829233730499,0.00021445640718695258
-6.102085895487526,0.0002162498136069474
-6.095342557244552,0.00021874030674666478
-6.088599219001578,0.0002219042716069125
-6.081855880758605,0.00022571163187301568
-6.075112542515631,0.00023012612627679868
-6.068369204272657,0.00023510564257882283
-6.061625866029684,0.00024060260727891414
-6.05488252778671,0.00024656442871903717
-6.048139189543737,0.0002529339907574382
-6.041395851300763,0.0002596501936852069
-6.0346525130577895,0.0002666485385148312
-6.027909174814816,0.0002738617502160215
-6.021165836571842,0.0002812204349057143
-6.0144224983288685,0.00028865376543678323
-6.007679160085895,0.0002960901892823456
-6.000935821842921,0.0003034581520961824
-5.994192483599948,0.0003106868298590054
-5.987449145356974,0.00031770686211488736
-5.980705807114,0.00032445107847074023
-5.973962468871027,0.0003308552102947171
-5.967219130628053,0.00033685857941982006
-5.960475792385079,0.00034240475564095707
-5.953732454142106,0.0003474421749057807
-5.946989115899132,0.00035192471033827083
-5.940245777656158,0.00035581218860855635
-5.933502439413185,0.0003590708446680052
-5.926759101170211,0.00036167370850104935
-5.920015762927237,0.00036360091830030944
-5.913272424684264,0.0003648399553332071
-5.9065290864412905,0.00036538579672856786
-5.899785748198317,0.00036524098344812433
-5.893042409955343,0.0003644156018077008
-5.8862990717123695,0.0003629271780520374
-5.879555733469396,0.00036080048664655084
-5.872812395226422,0.0003580672741083299
-5.866069056983449,0.0003547659013314955
-5.859325718740475,0.0003509409084568177
-5.852582380497501,0.0003466425073615498
-5.845839042254528,0.00034192600779718585
-5.839095704011554,0.00033685118405723385
-5.83235236576858,0.0003314815898006612
-5.825609027525607,0.0003258838292904895
-5.818865689282633,0.0003201267938064828
-5.812122351039659,0.0003142808723696419
-5.805379012796686,0.00030841714615965216
-5.798635674553712,0.00030260657612190406
-5.791892336310738,0.00029691919325301047
-5.785148998067765,0.00029142330092269547
-5.7784056598247915,0.0002861846983500671
-5.771662321581817,0.0002812659340067844
-5.764918983338844,0.00027672559728109114
-5.7581756450958705,0.00027261765621548056
-5.751432306852896,0.0002689908485348849
-5.744688968609923,0.00026588813252588495
-5.73794563036695,0.00026334620361545547
-5.731202292123976,0.00026139508174458786
-5.724458953881002,0.00026005777384262296
-5.717715615638029,0.0002593500148900321
-5.710972277395055,0.0002592800902205261
-5.704228939152081,0.0002598487408596341
-5.697485600909108,0.0002610491528330927
-5.690742262666134,0.00026286703051372345
-5.68399892442316,0.00026528075320439784
-5.677255586180187,0.0002682616132941712
-5.670512247937213,0.0002717741334691201
-5.663768909694239,0.00027577645962100937
-5.657025571451266,0.00028022082527854057
-5.6502822332082925,0.00028505408259282003
-5.643538894965318,0.0002902182941531288
-5.636795556722345,0.00029565137919550607
-5.6300522184793715,0.0003012878071021455
-5.623308880236397,0.00030705933049520243
-5.616565541993424,0.0003128957496949063
-5.609822203750451,0.00031872569987380654
-5.603078865507476,0.0003244774518831993
-5.596335527264503,0.0003300797174830132
-5.58959218902153,0.0003354624495708975
-5.582848850778556,0.00034055762798833924
-5.576105512535582,0.00034530002159702673
-5.569362174292609,0.0003496279175548314
-5.562618836049635,0.00035348380909716587
-5.555875497806661,0.0003568150336297093
-5.549132159563688,0.00035957435357001174
-5.542388821320714,0.0003617204731224802
-5.53564548307774,0.0003632184850310877
-5.528902144834767,0.0003640402423084474
-5.5221588065917935,0.0003641646509756344
-5.515415468348819,0.0003635778809468028
-5.508672130105846,0.0003622734933339893
-5.5019287918628725,0.00036025248361341427
-5.495185453619898,0.00035752324125628096
-5.488442115376925,0.0003541014275695166
-5.481698777133952,0.00035000977458567043
-5.474955438890977,0.00034527780887228616
-5.468212100648004,0.0003399415050696587
-5.461468762405031,0.0003340428748062728
-5.454725424162056,0.00032762949735933304
-5.447982085919083,0.0003207539990132714
-5.44123874767611,0.00031347348851951465
-5.4344954094331355,0.00030584895636070336
-5.427752071190162,0.0002979446456833658
-5.421008732947189,0.00028982740277571153
-5.414265394704215,0.00028156601484706154
-5.407522056461241,0.00027323054262002114
-5.400778718218268,0.0002648916548826166
-5.3940353799752945,0.0002566199716943218
-5.38729204173232,0.0002484854223988968
-5.380548703489347,0.00024055662400160674
-5.3738053652463735,0.00023290028482888386
-5.367062027003399,0.00022558063772927864
-5.360318688760426,0.00021865890641603256
-5.353575350517453,0.0002121928079088023
-5.346832012274478,0.0002062360934251134
-5.340088674031505,0.00020083812951338098
-5.333345335788532,0.00019604352072152137
-5.326601997545557,0.00019189177466584148
-5.319858659302584,0.00018841701001225813
-5.313115321059611,0.00018564770760259863
-5.3063719828166365,0.00018360650475839763
-5.299628644573663,0.00018231003266133
-5.29288530633069,0.00018176879664228915
-5.2861419680877155,0.00018198709919421685
-5.279398629844742,0.00018296300554863573
-5.272655291601769,0.00018468835170715528
-5.2659119533587955,0.0001871487948788761
-5.259168615115821,0.00019032390633544338
-5.252425276872848,0.00019418730672987952
-5.2456819386298745,0.00019870684393090074
-5.2389386003869,0.00020384481337996224
-5.232195262143927,0.0002095582208762256
-5.225451923900954,0.00021579908752809157
-5.218708585657979,0.00022251479636613627
-5.211965247415006,0.00022964847980082304
-5.205221909172033,0.0002371394467183853
-5.198478570929058,0.00024492364755015
-5.191735232686085,0.0002529341751349931
-5.184991894443112,0.00026110179862331995
-5.1782485562001375,0.00026935552706863417
-5.171505217957164,0.00027762319872778884
-5.164761879714191,0.0002858320914655328
-5.1580185414712165,0.0002939095490518476
-5.151275203228243,0.00030178361757154243
-5.14453186498527,0.0003093836856563198
-5.137788526742296,0.0003166411218179649
-5.131045188499322,0.0003234899018271474
-5.124301850256349,0.0003298672188619227
-5.117558512013375,0.00033571406905510276
-5.110815173770401,0.000340975805112477
-5.104071835527428,0.0003456026508623783
-5.097328497284455,0.00034955016992848156
-5.09058515904148,0.00035277968220041866
-5.083841820798507,0.000355258622394097
-5.077098482555534,0.0003569608357462846
-5.070355144312559,0.00035786680675678473
-5.063611806069586,0.0003579638178591218
-5.056868467826613,0.0003572460359522467
-5.0501251295836385,0.00035571452583260145
-5.043381791340665,0.000353377190706973
-5.036638453097692,0.00035024864111582975
-5.0298951148547175,0.00034634999472640295
-5.023151776611744,0.0003417086105401909
-5.016408438368771,0.00033635776207430537
-5.009665100125797,0.0003303362549987275
-5.002921761882823,0.00032368799551726196
-4.99617842363985,0.0003164615164580782
-4.989435085396876,0.00030870946856323064
-4.982691747153902,0.00030048808484058054
-4.975948408910929,0.00029185662604484797
-4.969205070667955,0.0002828768153926402
-4.962461732424981,0.00027361227049244735
-4.955718394182008,0.00026412794018172356
-4.948975055939035,0.0002544895535331569
-4.94223171769606,0.00024476308772061403
-4.935488379453087,0.00023501426075099585
-4.928745041210114,0.00022530805428191622
-4.9220017029671395,0.00021570827088725208
-4.915258364724166,0.00020627712921738803
-4.908515026481193,0.00019707489956109076
-4.9017716882382185,0.0001881595813717704
-4.895028349995245,0.00017958662339409223
-4.888285011752272,0.00017140868614863927
-4.881541673509298,0.00016367544571333978
-4.874798335266324,0.0001564334370077608
-4.868054997023351,0.00014972593415323726
-4.861311658780377,0.00014359286495943535
-4.854568320537403,0.00013807075619194642
-4.84782498229443,0.00013319270600367292
-4.841081644051456,0.00012898837977659387
-4.834338305808482,0.00012548402560953222
-4.827594967565509,0.00012270250580701317
-4.820851629322535,0.00012066334095456668
-4.814108291079561,0.00011938276350522727
-4.807364952836588,0.00011887377823065377
-4.800621614593615,0.00011914622739030937
-4.7938782763506405,0.00012020685903074962
-4.787134938107667,0.00012205939741617797
-4.780391599864694,0.00012470461519391383
-4.7736482616217195,0.0001281404074960739
-4.766904923378746,0.00013236186873655763
-4.760161585135773,0.00013736137338239435
-4.753418246892799,0.0001431286624131835
-4.746674908649825,0.00014965093754362897
-4.739931570406852,0.00015691296553031146
-4.733188232163878,0.00016489719502482854
-4.726444893920904,0.00017358388844670048
-4.719701555677931,0.00018295127123565524
-4.712958217434957,0.0001929757005971252
-4.706214879191983,0.0002036318554826909
-4.69947154094901,0.00021489294905375524
-4.692728202706036,0.00022673096427331361
-4.685984864463062,0.00023911691256982542
-4.679241526220089,0.00025202111473977395
-4.672498187977115,0.0002654135024185156
-4.6657548497341415,0.00027926393757689207
-4.659011511491168,0.00029354254662453984
-4.652268173248194,0.00030822006483200836
-4.6455248350052205,0.0003232681859721559
-4.638781496762247,0.0003386599113313054
-4.632038158519274,0.000354369891596562
-4.6252948202763,0.00037037475459986884
-4.618551482033326,0.00038665341152600754
-4.611808143790353,0.00040318733397848
-4.605064805547379,0.00041996079426933914
-4.598321467304405,0.0004369610614638319
-4.591578129061432,0.00045417854607510697
-4.584834790818458,0.00047160688687195723
-4.578091452575484,0.0004892429740269814
-4.571348114332511,0.0005070869037880205
-4.564604776089537,0.0005251418609877566
-4.557861437846563,0.000543413926990137
-4.55111809960359,0.0005619118120929155
-4.544374761360616,0.0005806465129281936
-4.5376314231176424,0.0005996308969957072
-4.530888084874669,0.0006188792180970258
-4.524144746631695,0.0006384065680702967
-4.5174014083887215,0.0006582282718206253
-4.510658070145748,0.000678359234161284
-4.503914731902774,0.0006988132483892358
-4.497171393659801,0.0007196022777768221
-4.490428055416827,0.000740735722243091
-4.483684717173854,0.0007622196833356049
-4.47694137893088,0.0007840562412878491
-4.470198040687906,0.0008062427582972674
-4.463454702444933,0.0008287712222746282
-4.456711364201959,0.0008516276451466832
-4.449968025958985,0.0008747915293367756
-4.443224687716012,0.0008982354153175554
-4.436481349473038,0.0009219245221223291
-4.429738011230064,0.0009458164914427185
-4.422994672987091,0.000969861244445272
-4.416251334744117,0.000994000958732668
-4.4095079965011434,0.001018170170991187
-4.40276465825817,0.001042296008833498
-4.396021320015196,0.0010662985532066353
-4.3892779817722225,0.0010900913305237556
-4.382534643529249,0.0011135819314389405
-4.375791305286275,0.001136672750958221
-4.369047967043302,0.0011592618424048316
-4.362304628800328,0.001181243875679399
-4.355561290557354,0.0012025111883081085
-4.348817952314381,0.0012229549159946257
-4.342074614071407,0.0012424661878174294
-4.335331275828433,0.0012609373698698155
-4.32858793758546,0.0012782633400552357
-4.321844599342486,0.0012943427759431296
-4.315101261099513,0.001309079437077424
-4.308357922856539,0.0013223834229234913
-4.301614584613565,0.0013341723877407195
-4.294871246370592,0.001344372694086278
-4.288127908127618,0.0013529204873729828
-4.281384569884644,0.0013597626749240477
-4.274641231641671,0.0013648577942624255
-4.267897893398697,0.001368176756930949
-4.2611545551557235,0.0013697034559296151
-4.25441121691275,0.0013694352268558783
-4.247667878669776,0.0013673831550018826
-4.240924540426803,0.001363572222972679
-4.234181202183829,0.001358041295791236
-4.227437863940855,0.0013508429429235878
-4.220694525697882,0.0013420430991313743
-4.213951187454908,0.00133172056851384
-4.207207849211934,0.0013199663784812243
-4.200464510968961,0.001306882992674327
-4.193721172725987,0.0012925833939624737
-4.186977834483013,0.0012771900505869592
-4.18023449624004,0.0012608337802235726
-4.173491157997066,0.0012436525281958929
-4.166747819754093,0.0012257900772480162
-4.160004481511119,0.0012073947071635383
-4.153261143268145,0.0011886178230806725
-4.146517805025172,0.00116961257159311
-4.139774466782198,0.0011505324636370707
