Values,Density
-7.688203196679004,2.3996089842936996e-7
-7.68029461693762,2.469303987950866e-7
-7.672386037196236,2.5859034158415284e-7
-7.664477457454851,2.751213460661095e-7
-7.656568877713466,2.967713604307143e-7
-7.648660297972082,3.238580455200424e-7
-7.640751718230698,3.5677169557546407e-7
-7.632843138489313,3.959787009122362e-7
-7.6249345587479285,4.4202555735117777e-7
-7.617025979006544,4.955434263209657e-7
-7.60911739926516,5.572532476294523e-7
-7.601208819523776,6.279714049872709e-7
-7.5933002397823905,7.086159443114859e-7
-7.585391660041006,8.002133398965494e-7
-7.577483080299622,9.039058034010505e-7
-7.569574500558238,1.020959125491716e-6
-7.561665920816853,1.1527710383485434e-6
-7.553757341075468,1.300880081989142e-6
-7.545848761334084,1.4669749530404896e-6
-7.5379401815927,1.6529043110891095e-6
-7.530031601851315,1.8606870102189088e-6
-7.5221230221099304,2.092522719432388e-6
-7.514214442368546,2.3508028883373333e-6
-7.506305862627162,2.6381220078197654e-6
-7.498397282885778,2.9572891084850284e-6
-7.4904887031443925,3.3113394323075473e-6
-7.482580123403008,3.70354620356228e-6
-7.474671543661624,4.13743241957365e-6
-7.46676296392024,4.616782570743272e-6
-7.458854384178855,5.145654191907045e-6
-7.45094580443747,5.728389139481038e-6
-7.443037224696086,6.369624477697844e-6
-7.435128644954702,7.07430285151571e-6
-7.427220065213318,7.847682214519314e-6
-7.419311485471932,8.695344771398467e-6
-7.411402905730548,9.623204989749404e-6
-7.403494325989164,1.0637516527691251e-5
-7.39558574624778,1.1744877918022298e-5
-7.3876771665063945,1.2952236847014326e-5
-7.37976858676501,1.4266892860128472e-5
-7.371860007023626,1.5696498326460764e-5
-7.363951427282242,1.7249057492731493e-5
-7.3560428475408575,1.893292345827094e-5
-7.348134267799472,2.0756792906209687e-5
-7.340225688058088,2.272969843057117e-5
-7.332317108316704,2.4860998306083446e-5
-7.3244085285753195,2.7160363556242434e-5
-7.316499948833934,2.9637762188661904e-5
-7.30859136909255,3.230344047841158e-5
-7.300682789351166,3.5167901198493445e-5
-7.292774209609782,3.824187871535531e-5
-7.284865629868397,4.153631088854408e-5
-7.276957050127012,4.5062307738688925e-5
-7.269048470385628,4.8831116874037406e-5
-7.261139890644244,5.285408569614611e-5
-7.253231310902859,5.7142620434623426e-5
-7.245322731161474,6.17081420975947e-5
-7.23741415142009,6.65620394558232e-5
-7.229505571678706,7.171561921937887e-5
-7.2215969919373215,7.718005360128274e-5
-7.213688412195936,8.296632550284025e-5
-7.205779832454552,8.908517159507412e-5
-7.197871252713168,9.554702361016208e-5
-7.189962672971784,0.00010236194819688259
-7.182054093230399,0.00010953958573199987
-7.174145513489014,0.00011708908851754823
-7.16623693374763,0.00012501905882905673
-7.158328354006246,0.00013333748731212888
-7.150419774264861,0.00014205169225637096
-7.142511194523476,0.00015116826029890063
-7.134602614782092,0.00016069298913496885
-7.126694035040708,0.0001706308328280129
-7.1187854552993235,0.00018098585032400027
-7.110876875557939,0.00019176115778160238
-7.102968295816554,0.00020295888532838313
-7.09505971607517,0.00021458013884662758
-7.087151136333786,0.00022662496737886964
-7.079242556592401,0.0002390923367200093
-7.071333976851016,0.0002519801097358894
-7.063425397109632,0.00026528503390960134
-7.055516817368248,0.0002790027365726991
-7.047608237626863,0.0002931277282266151
-7.039699657885479,0.00030765341429834017
-7.031791078144094,0.0003225721156086929
-7.02388249840271,0.0003378750977556487
-7.0159739186613255,0.0003535526095362028
-7.008065338919941,0.00036959393044206507
-7.000156759178556,0.00038598742717443554
-6.992248179437172,0.00040272061902638795
-6.9843395996957875,0.0004197802518817323
-6.976431019954403,0.00043715238047886684
-6.968522440213019,0.00045482245848364744
-6.960613860471634,0.0004727754358140046
-6.95270528073025,0.000490995862555188
-6.944796700988865,0.0005094679987068217
-6.936888121247481,0.0005281759289065165
-6.928979541506096,0.0005471036811835507
-6.921070961764712,0.000566235348713022
-6.9131623820233274,0.0005855552134632659
-6.905253802281943,0.0006050478705622725
-6.897345222540558,0.0006246983521516029
-6.889436642799174,0.0006444922494488366
-6.8815280630577895,0.0006644158317082628
-6.873619483316405,0.0006844561607463884
-6.865710903575021,0.0007046011996941423
-6.857802323833636,0.0007248399146457356
-6.849893744092252,0.0007451623678970919
-6.841985164350867,0.0007655598015064297
-6.834076584609483,0.0007860247099639762
-6.826168004868098,0.000806550900828644
-6.818259425126714,0.0008271335422743095
-6.810350845385329,0.0008477691965898329
-6.802442265643945,0.0008684558387910962
-6.794533685902561,0.000889192859631717
-6.786625106161176,0.0009099810524391613
-6.7787165264197915,0.0009308225833548345
-6.770807946678407,0.0009517209447172451
-6.762899366937023,0.000972680891496075
-6.754990787195638,0.000993708360861545
-6.747082207454254,0.001014810375151054
-6.739173627712869,0.0010359949286790487
-6.731265047971485,0.0010572708590171898
-6.723356468230101,0.0010786477035534328
-6.715447888488716,0.0011001355423153267
-6.707539308747331,0.001121744828213589
-6.699630729005947,0.0011434862060251336
-6.691722149264563,0.0011653703215870476
-6.683813569523178,0.001187407622814364
-6.6759049897817935,0.0012096081542798919
-6.667996410040409,0.0012319813472067252
-6.660087830299025,0.0012545358068159207
-6.65217925055764,0.00127727909904864
-6.6442706708162556,0.0013002175387354133
-6.636362091074871,0.0013233559813203878
-6.628453511333487,0.0013466976202611558
-6.620544931592103,0.0013702437922144817
-6.612636351850718,0.0013939937920877318
-6.604727772109333,0.0014179446999810427
-6.596819192367949,0.0014420912219705595
-6.588910612626565,0.0014664255465839798
-6.58100203288518,0.001490937218705135
-6.5730934531437955,0.0015156130325038111
-6.565184873402411,0.0015404369448340158
-6.557276293661027,0.0015653900103719046
-6.549367713919643,0.0015904503395767905
-6.5414591341782575,0.0016155930803597104
-6.533550554436873,0.0016407904241340227
-6.525641974695489,0.0016660116367024982
-6.517733394954105,0.0016912231142097722
-6.50982481521272,0.0017163884641608826
-6.501916235471335,0.0017414686112744368
-6.494007655729951,0.0017664219277088167
-6.486099075988567,0.0017912043869750816
-6.478190496247183,0.0018157697406273252
-6.470281916505797,0.0018400697166097019
-6.462373336764413,0.0018640542379380898
-6.454464757023029,0.0018876716602024557
-6.446556177281645,0.0019108690262031464
-6.4386475975402595,0.0019335923358741597
-6.430739017798875,0.0019557868295058053
-6.422830438057491,0.0019773972821570188
-6.414921858316107,0.0019983683070476307
-6.4070132785747225,0.0020186446656388843
-6.399104698833337,0.0020381715820544967
-6.391196119091953,0.0020568950594587534
-6.383287539350569,0.0020747621959944437
-6.3753789596091845,0.0020917214978951326
-6.367470379867799,0.002107723187417525
-6.359561800126415,0.002122719503293999
-6.351653220385031,0.0021366649914812755
-6.343744640643647,0.0021495167840757667
-6.3358360609022615,0.0021612348643806137
-6.327927481160877,0.002171782316241447
-6.320018901419493,0.0021811255559149034
-6.312110321678109,0.0021892345448969036
-6.3042017419367244,0.0021960829823106723
-6.296293162195339,0.0022016484756415683
-6.288384582453955,0.0022059126887974193
-6.280476002712571,0.0022088614666740947
-6.2725674229711865,0.0022104849356115036
-6.264658843229801,0.0022107775793301365
-6.256750263488417,0.002209738290147402
-6.248841683747033,0.0022073703954778104
-6.240933104005649,0.0022036816598222653
-6.233024524264264,0.002198684262648763
-6.225115944522879,0.002192394752754595
-6.217207364781495,0.002184833979879529
-6.209298785040111,0.0021760270045088626
-6.201390205298726,0.0021660029869603054
-6.193481625557341,0.002154795056992488
-6.185573045815957,0.002142440165300394
-6.177664466074573,0.0021289789183764757
-6.1697558863331885,0.002114455398310622
-6.161847306591804,0.0020989169691841315
-6.153938726850419,0.002082414071771531
-6.146030147109035,0.0020650000083109916
-6.138121567367651,0.0020467307191289266
-6.130212987626266,0.0020276645529139145
-6.122304407884881,0.002007862032427147
-6.114395828143497,0.0019873856174116716
-6.106487248402113,0.0019662994664205666
-6.098578668660728,0.0019446691992294346
-6.090670088919344,0.001922561661427305
-6.082761509177959,0.0019000446926946066
-6.074852929436575,0.0018771869001832087
-6.0669443496951905,0.0018540574383040867
-6.059035769953806,0.0018307257961124868
-6.051127190212421,0.0018072615933559938
-6.043218610471037,0.0017837343861192914
-6.0353100307296526,0.001760213482861997
-6.027401450988268,0.0017367677715079133
-6.019492871246883,0.001713465558100112
-6.011584291505499,0.0016903744173949672
-6.003675711764115,0.0016675610556265777
-5.99576713202273,0.001645091185534256
-5.987858552281346,0.001623029413610269
-5.979949972539961,0.001601439139397108
-5.972041392798577,0.00158038246653866
-5.9641328130571925,0.0015599201251757996
-5.956224233315808,0.0015401114051703593
-5.948315653574423,0.0015210140995446098
-5.940407073833039,0.0015026844574373768
-5.9324984940916545,0.0014851771458039842
-5.92458991435027,0.0014685452190235787
-5.916681334608886,0.001452840095526809
-5.908772754867501,0.001438111540520027
-5.900864175126117,0.0014244076538548235
-5.892955595384732,0.00141177486208037
-5.885047015643348,0.0014002579137152582
-5.877138435901963,0.0013898998767862894
-5.869229856160579,0.0013807421377061424
-5.861321276419194,0.001372824400595947
-5.85341269667781,0.001366184686202053
-5.845504116936426,0.0013608593296132072
-5.837595537195041,0.0013568829760443012
-5.8296869574536565,0.0013542885740259365
-5.821778377712272,0.0013531073654148573
-5.813869797970888,0.0013533688717231804
-5.805961218229503,0.0013551008763521936
-5.798052638488119,0.0013583294024062456
-5.790144058746734,0.0013630786858548627
-5.78223547900535,0.0013693711439047955
-5.774326899263965,0.0013772273385358608
-5.766418319522581,0.0013866659352482005
-5.758509739781196,0.001397703657155254
-5.750601160039812,0.001410355234644941
-5.742692580298428,0.0014246333509125783
-5.734784000557043,0.0014405485837451076
-5.7268754208156585,0.0014581093440083522
-5.718966841074274,0.0014773218113526207
-5.71105826133289,0.001498189867709769
-5.703149681591505,0.001520715029205949
-5.695241101850121,0.0015448963771565669
-5.687332522108736,0.001570730488844825
-5.679423942367352,0.0015982113688142452
-5.671515362625968,0.0016273303814242426
-5.663606782884583,0.0016580761854303328
-5.655698203143198,0.0016904346713573074
-5.647789623401814,0.0017243889024300722
-5.63988104366043,0.0017599190598212716
-5.631972463919045,0.0017970023929590765
-5.6240638841776605,0.0018356131756204403
-5.616155304436276,0.0018757226685109003
-5.608246724694892,0.001917299089003726
-5.600338144953508,0.001960307588678895
-5.5924295652121225,0.0020047102392677357
-5.584520985470738,0.0020504660275723896
-5.576612405729354,0.002097530859886773
-5.56870382598797,0.002145857576408815
-5.560795246246585,0.0021953959760871488
-5.5528866665052,0.00224609285230533
-5.544978086763816,0.002297892039761351
-5.537069507022432,0.0023507344728569586
-5.529160927281048,0.0024045582558661492
-5.521252347539662,0.0024592987451086956
-5.513343767798278,0.0025148886433088162
-5.505435188056894,0.0025712581062746704
-5.49752660831551,0.002628334861987962
-5.4896180285741245,0.0026860443421475215
-5.48170944883274,0.0027443098261616
-5.473800869091356,0.002803052597536473
-5.465892289349972,0.0028621921125569706
-5.457983709608587,0.0029216461811024403
-5.450075129867202,0.0029813311593868026
-5.442166550125818,0.0030411621543533275
-5.434257970384434,0.003101053239394035
-5.4263493906430496,0.0031609176810006236
-5.418440810901664,0.00322066817588626
-5.41053223116028,0.003280217098047041
-5.402623651418896,0.0033394767551600396
-5.394715071677512,0.003398359653636534
-5.3868064919361265,0.003456778771571207
-5.378897912194742,0.0035146478387466564
-5.370989332453358,0.0035718816227685215
-5.363080752711974,0.0036283962203233853
-5.3551721729705895,0.003684109352467194
-5.347263593229204,0.00373894066276703
-5.33935501348782,0.003792812017039045
-5.331446433746436,0.0038456478033447195
-5.3235378540050515,0.0038973752308334164
-5.315629274263666,0.0039479246259499605
-5.307720694522282,0.0039972297244623076
-5.299812114780898,0.004045227957710564
-5.291903535039514,0.004091860731433226
-5.283994955298129,0.004137073695491751
-5.276086375556744,0.004180817002792842
-5.26817779581536,0.004223045555698312
-5.260269216073976,0.004263719238218427
-5.252360636332591,0.0043028031323045085
-5.244452056591206,0.004340267716593873
-5.236543476849822,0.004376089046014317
-5.228634897108438,0.0044102489107243036
-5.2207263173670535,0.0044427349729553416
-5.212817737625669,0.00447354088042614
-5.204909157884284,0.004502666355121813
-5.1970005781429,0.00453011725636902
-5.189091998401516,0.004555905617292598
-5.181183418660131,0.004580049653906841
-5.173274838918746,0.004602573746276956
-5.165366259177362,0.004623508391378633
-5.157457679435978,0.004642890127485557
-5.149549099694593,0.004660761430126108
-5.141640519953208,0.004677170579863825
-5.133731940211824,0.004692171502375981
-5.12582336047044,0.004705823581522314
-5.1179147807290555,0.004718191446311568
-5.110006200987671,0.00472934473288626
-5.102097621246286,0.004739357822848482
-5.094189041504902,0.004748309559442809
-5.086280461763518,0.004756282943294388
-5.078371882022133,0.004763364809564274
-5.070463302280748,0.004769645488531907
-5.062554722539364,0.004775218451744206
-5.05464614279798,0.004780179945975408
-5.046737563056595,0.004784628617327535
-5.038828983315211,0.004788665127859443
-5.030920403573826,0.004792391767167795
-5.023011823832442,0.004795912061350964
-5.0151032440910575,0.004799330381770819
-5.007194664349673,0.004802751555983854
-4.999286084608288,0.004806280483145027
-4.991377504866904,0.0048100217560969865
-4.9834689251255195,0.004814079292241652
-4.975560345384135,0.004818555975155856
-4.967651765642751,0.004823553308759838
-4.959743185901366,0.004829171085674627
-4.951834606159982,0.0048355070712212695
-4.943926026418597,0.00484265670431917
-4.936017446677213,0.004850712816337227
-4.928108866935828,0.004859765368743845
-4.920200287194444,0.004869901210192228
-4.912291707453059,0.0048812038534709785
-4.904383127711675,0.004893753272546309
-4.896474547970291,0.00490762571973093
-4.888565968228906,0.004922893562829456
-4.8806573884875215,0.004939625141944803
-4.872748808746137,0.004957884645477773
-4.864840229004753,0.004977732004719508
-4.856931649263368,0.004999222806326401
-4.849023069521984,0.00502240822187831
-4.841114489780599,0.005047334953654611
-4.833205910039215,0.005074045195724474
-4.82529733029783,0.005102576609428415
-4.817388750556446,0.00513296231233786
-4.809480170815061,0.005165230879809989
-4.801571591073677,0.005199406358307257
-4.793663011332293,0.005235508289725721
-4.785754431590908,0.00527355174606575
-4.7778458518495235,0.005313547373888245
-4.769937272108139,0.005355501448116487
-4.762028692366755,0.005399415934874955
-4.75412011262537,0.005445288563191096
-4.746211532883986,0.005493112905523352
-4.738302953142601,0.005542878467215823
-4.730394373401217,0.005594570785110808
-4.722485793659833,0.005648171535672498
-4.714577213918448,0.005703658653085759
-4.706668634177063,0.00576100645788636
-4.698760054435679,0.005820185796753523
-4.690851474694295,0.005881164194147737
-4.68294289495291,0.005943906016502572
-4.6750343152115255,0.006008372649679246
-4.667125735470141,0.006074522690362481
-4.659217155728757,0.0061423121520172465
-4.651308575987373,0.0062116946859342385
-4.6433999962459875,0.0062826218177727995
-4.635491416504603,0.006355043199855588
-4.627582836763219,0.006428906879292298
-4.619674257021835,0.006504159581799665
-4.61176567728045,0.0065807470108539615
-4.603857097539065,0.00665861416155801
-4.595948517797681,0.0067377056483331884
-4.588039938056297,0.006817966045259157
-4.580131358314912,0.00689934023759029
-4.572222778573527,0.006981773782675059
-4.564314198832143,0.007065213278204753
-4.556405619090759,0.007149606735424043
-4.548497039349375,0.007234903954650082
-4.5405884596079895,0.007321056900181668
-4.532679879866605,0.007408020071433661
-4.524771300125221,0.007495750866915535
-4.516862720383837,0.0075842099374862715
-4.508954140642452,0.0076733615251726285
-4.501045560901067,0.007763173783729953
-4.493136981159683,0.007853619077065627
-4.485228401418299,0.007944674251634337
-4.477319821676915,0.008036320878954086
-4.469411241935529,0.008128545464486128
-4.461502662194145,0.008221339619271986
-4.453594082452761,0.008314700190923029
-4.445685502711377,0.008408629350818797
-4.4377769229699915,0.008503134634682313
-4.429868343228607,0.00859822893406443
-4.421959763487223,0.008693930436683317
-4.414051183745839,0.008790262514022252
-4.4061426040044545,0.008887253555088407
-4.398234024263069,0.008984936745768286
-4.390325444521685,0.00908334979378103
-4.382416864780301,0.009182534599815457
-4.3745082850389165,0.009282536876042222
-4.366599705297531,0.009383405713804374
-4.358691125556147,0.009485193102901931
-4.350782545814763,0.009587953405496475
-4.342873966073379,0.009691742788252885
-4.334965386331994,0.00979661861690696
-4.327056806590609,0.009902638817989544
-4.319148226849225,0.010009861212940214
-4.311239647107841,0.010118342830302982
-4.303331067366456,0.01022813920210345
-4.295422487625071,0.010339303650856209
-4.287513907883687,0.01045188657393639
-4.279605328142303,0.010565934732268113
-4.2716967484009185,0.010681490550425976
-4.263788168659533,0.010798591435315492
-4.255879588918149,0.01091726912058998
-4.247971009176765,0.01103754904387188
-4.240062429435381,0.011159449763678697
-4.232153849693996,0.011282982422705222
-4.224245269952611,0.011408150263789128
-4.216336690211227,0.011534948204483746
-4.208428110469843,0.011663362475690955
-4.200519530728458,0.011793370329264554
-4.192610950987073,0.011924939818892583
-4.184702371245689,0.01205802965790694
-4.176793791504305,0.012192589156960214
-4.1688852117629205,0.012328558243758283
-4.160976632021536,0.012465867566251843
-4.153068052280151,0.012604438679879397
-4.145159472538767,0.01274418431862584
-4.137250892797383,0.012885008748825469
-4.129342313055998,0.013026808203802448
-4.121433733314613,0.013169471396619755
-4.113525153573229,0.013312880107401188
-4.105616573831845,0.013456909840916657
-4.09770799409046,0.013601430549382933
-4.089799414349076,0.013746307414738715
-4.081890834607691,0.0138914016840145
-4.073982254866307,0.014036571550840224
-4.0660736751249225,0.014181673075622271
-4.058165095383538,0.014326561136484468
-4.050256515642153,0.014471090402709125
-4.042347935900769,0.01461511632213754
-4.0344393561593845,0.014758496113798926
-4.026530776418,0.014901089756934974
-4.018622196676616,0.015042760967574103
-4.010713616935231,0.015183378153887171
-4.002805037193847,0.015322815341722891
-3.9948964574524624,0.015460953061976854
-3.9869878777110777,0.015597679191786068
-3.9790792979696934,0.015732889741964365
-3.9711707182283087,0.01586648958359278
-3.9632621384869244,0.015998393107248987
-3.9553535587455397,0.016128524808999678
-3.9474449790041555,0.016256819797974838
-3.939536399262771,0.01638322422109279
-3.9316278195213865,0.016507695601298614
-3.9237192397800023,0.016630203086506912
-3.9158106600386176,0.01675072760729588
-3.9079020802972333,0.016869261942275025
-3.8999935005558486,0.01698581069093002
-3.8920849208144643,0.017100390154631342
-3.8841763410730796,0.01721302812736559
-3.8762677613316954,0.017323763598600977
-3.8683591815903107,0.01743264637152502
-3.8604506018489264,0.017539736600680023
-3.852542022107542,0.017645104253767068
-3.8446334423661574,0.017748828503080002
-3.836724862624773,0.017850997052665157
-3.8288162828833885,0.017951705407867065
-3.8209077031420042,0.018051056094417893
-3.8129991234006195,0.018149157834646695
-3.8050905436592353,0.01824612468872468
-3.7971819639178506,0.018342075169118066
