Values,Density
-4.658143051507473,2.421122626272698e-7
-4.653769902232112,2.466898164354969e-7
-4.6493967529567515,2.555226038258862e-7
-4.64502360368139,2.6872644759423636e-7
-4.640650454406029,2.864716839579007e-7
-4.636277305130669,3.089844722026225e-7
-4.631904155855308,3.365484856909795e-7
-4.627531006579947,3.6950698201199117e-7
-4.623157857304586,4.082652542425347e-7
-4.618784708029225,4.5329345982336733e-7
-4.614411558753864,5.051298256342207e-7
-4.610038409478504,5.643842256874976e-7
-4.605665260203143,6.317421268053902e-7
-4.601292110927782,7.07968895563571e-7
-4.596918961652421,7.939144588409164e-7
-4.59254581237706,8.90518308427346e-7
-4.588172663101699,9.988148381157025e-7
-4.583799513826339,1.1199389974292373e-6
-4.579426364550978,1.2551322478016047e-6
-4.5750532152756165,1.405748798560813e-6
-4.570680066000256,1.5732621025388305e-6
-4.566306916724895,1.7592715834124917e-6
-4.561933767449534,1.9655095651882615e-6
-4.557560618174173,2.193848371634388e-6
-4.5531874688988125,2.4463075559422176e-6
-4.548814319623451,2.725061220065772e-6
-4.54444117034809,3.03244537727676e-6
-4.54006802107273,3.370965306503937e-6
-4.535694871797369,3.743302843306484e-6
-4.531321722522008,4.152323547057524e-6
-4.5269485732466475,4.601083679278695e-6
-4.522575423971286,5.092836923403787e-6
-4.518202274695925,5.631040771327152e-6
-4.513829125420565,6.219362497670352e-6
-4.509455976145204,6.861684638772691e-6
-4.505082826869843,7.562109888821153e-6
-4.500709677594482,8.32496532181563e-6
-4.496336528319121,9.154805844732022e-6
-4.49196337904376,1.005641678570408e-5
-4.4875902297684,1.1034815516021293e-5
-4.483217080493039,1.2095252005349692e-5
-4.4788439312176775,1.3243208208304352e-5
-4.474470781942317,1.4484396179069957e-5
-4.470097632666956,1.5824754812700627e-5
-4.465724483391595,1.727044511295713e-5
-4.461351334116235,1.88278438884897e-5
-4.456978184840874,2.05035357832221e-5
-4.4526050355655125,2.2304303552168653e-5
-4.448231886290152,2.4237116497928253e-5
-4.443858737014791,2.630911699181757e-5
-4.43948558773943,2.8527605010669147e-5
-4.43511243846407,3.090002063009718e-5
-4.4307392891887085,3.343392442554851e-5
-4.426366139913347,3.61369757438145e-5
-4.421992990637987,3.901690882074176e-5
-4.417619841362626,4.208150673590868e-5
-4.413246692087265,4.533857320708533e-5
-4.408873542811905,4.879590224768143e-5
-4.404500393536543,5.246124572288785e-5
-4.400127244261182,5.634227886067123e-5
-4.395754094985822,6.044656379293532e-5
-4.391380945710461,6.478151121624108e-5
-4.3870077964351,6.93543402875581e-5
-4.382634647159739,7.417203688484995e-5
-4.378261497884378,7.92413103838617e-5
-4.373888348609017,8.456854912245078e-5
-4.369515199333656,9.015977474213788e-5
-4.365142050058296,9.602059561562501e-5
-4.360768900782935,0.00010215615958709175
-4.3563957515075735,0.00010857110626845325
-4.352022602232213,0.00011526951915341848
-4.347649452956852,0.00012225487782097262
-4.343276303681491,0.00012953001051910305
-4.338903154406131,0.00013709704742626873
-4.33453000513077,0.0001449573749005154
-4.330156855855408,0.0001531115910323247
-4.325783706580048,0.000161559462824294
-4.321410557304687,0.000170299885322466
-4.317037408029326,0.0001793308430250197
-4.312664258753966,0.0001886493738933754
-4.3082911094786045,0.00019825153628514822
-4.303917960203243,0.0002081323791217871
-4.299544810927883,0.0002182859155938151
-4.295171661652522,0.00022870510069460722
-4.290798512377161,0.00023938181285888468
-4.286425363101801,0.0002503068399622027
-4.282052213826439,0.0002614698699216333
-4.277679064551078,0.00027285948611164776
-4.273305915275718,0.0002844631677861255
-4.268932766000357,0.000296267295671347
-4.264559616724996,0.000308257162863583
-4.2601864674496355,0.00032041699113806487
-4.255813318174274,0.00033272995274072933
-4.251440168898913,0.000345178197703414
-4.247067019623553,0.0003577428866886052
-4.242693870348192,0.0003704042293338019
-4.238320721072831,0.0003831415280331988
-4.23394757179747,0.0003959332270551275
-4.229574422522109,0.00040875696686314654
-4.225201273246748,0.00042158964346968204
-4.220828123971388,0.0004344074726195489
-4.216454974696027,0.0004471860585674361
-4.212081825420666,0.00045990046718090427
-4.207708676145305,0.0004725253030703029
-4.203335526869944,0.0004850347904186477
-4.198962377594583,0.0004974028571577555
-4.194589228319222,0.0005096032221134448
-4.190216079043862,0.0005216094847170574
-4.1858429297685005,0.0005333952168662011
-4.181469780493139,0.0005449340564960495
-4.177096631217779,0.0005561998024092591
-4.172723481942418,0.0005671665099036636
-4.168350332667057,0.0005778085867243089
-4.1639771833916965,0.000588100888864124
-4.159604034116335,0.000598018815732123
-4.155230884840974,0.0006075384042109411
-4.150857735565614,0.0006166364211257058
-4.146484586290253,0.0006252904536555373
-4.142111437014892,0.0006334789972236065
-4.1377382877395315,0.0006411815404185894
-4.13336513846417,0.0006483786465086069
-4.128991989188809,0.000655052031131133
-4.124618839913449,0.0006611846357560515
-4.120245690638088,0.000666760696545414
-4.115872541362727,0.0006717658082526909
-4.111499392087366,0.0006761869828324964
-4.107126242812005,0.0006800127024574974
-4.102753093536644,0.0006832329666689569
-4.098379944261284,0.0006858393334164027
-4.094006794985923,0.0006878249537753435
-4.0896336457105615,0.0006891846001626407
-4.085260496435201,0.0006899146879048926
-4.08088734715984,0.0006900132900465525
-4.076514197884479,0.0006894801453232839
-4.072141048609119,0.0006883166592587912
-4.067767899333758,0.000686525898378431
-4.0633947500583965,0.0006841125775719145
-4.059021600783036,0.0006810830406683045
-4.054648451507675,0.0006774452343262446
-4.050275302232314,0.000673208675372362
-4.045902152956954,0.0006683844117593117
-4.0415290036815925,0.0006629849773443601
-4.037155854406231,0.0006570243407227876
-4.032782705130871,0.0006505178483823485
-4.02840955585551,0.0006434821624725223
-4.024036406580149,0.0006359351935101929
-4.019663257304789,0.000627896028371969
-4.015290108029427,0.0006193848539441035
-4.010916958754066,0.0006104228768262047
-4.006543809478705,0.0006010322395020532
-4.002170660203345,0.0005912359334113489
-3.9977975109279837,0.0005810577093690386
-3.993424361652623,0.0005705219857924798
-3.9890512123772623,0.0005596537552071488
-3.984678063101901,0.0005484784895068177
-3.9803049138265405,0.0005370220444512065
-3.97593176455118,0.0005253105638828685
-3.9715586152758187,0.0005133703841450846
-3.967185466000458,0.0005012279391782646
-3.962812316725097,0.0004889096667639826
-3.958439167449736,0.0004764419163755945
-3.9540660181743754,0.0004638508590837885
-3.9496928688990143,0.00045116239994502996
-3.9453197196236536,0.0004384020932879304
-3.940946570348293,0.00042559506128623734
-3.9365734210729317,0.00041276591618823535
-3.932200271797571,0.00039993868654516346
-3.9278271225222103,0.000387136747752162
-3.923453973246849,0.0003743827571896126
-3.9190808239714885,0.0003616985942184077
-3.914707674696128,0.0003491053052540466
-3.9103345254207666,0.00033662305410690416
-3.905961376145406,0.00032427107774784386
-3.9015882268700453,0.0003120676476181493
-3.897215077594684,0.00030003003657209926
-3.8928419283193234,0.00028817449150476265
-3.8884687790439627,0.00027651621168247806
-3.8840956297686016,0.00026506933276097475
-3.879722480493241,0.00025384691644256274
-3.8753493312178797,0.0002428609456923969
-3.870976181942519,0.00023212232540370178
-3.8666030326671583,0.00022164088837180358
-3.862229883391797,0.00021142540641120797
-3.8578567341164365,0.00020148360642436788
-3.853483584841076,0.0001918221912064772
-3.8491104355657146,0.00018244686475192562
-3.844737286290354,0.00017336236180648737
-3.8403641370149932,0.00016457248139710098
-3.835990987739632,0.0001560801240527536
-3.8316178384642714,0.00014788733242158784
-3.8272446891889107,0.0001399953349797388
-3.8228715399135496,0.0001324045925205873
-3.818498390638189,0.00012511484710739373
-3.814125241362828,0.0001181251731731843
-3.809752092087467,0.0001114340304495462
-3.8053789428121063,0.0001050393184072844
-3.8010057935367456,9.893843189848553e-5
-3.7966326442613845,9.312831769206151e-5
-3.7922594949860238,8.760553160400142e-5
-3.7878863457106626,8.23662959290837e-5
-3.783513196435302,7.740655689368603e-5
-3.7791400471599412,7.272204185581471e-5
-3.77476689788458,6.830831599172194e-5
-3.7703937486092194,6.416083821831134e-5
-3.7660205993338587,6.0275016114150204e-5
-3.7616474500584975,5.6646259610208805e-5
-3.757274300783137,5.3270033236484104e-5
-3.752901151507776,5.014190672094493e-5
-3.748528002232415,4.725760374652346e-5
-3.7441548529570543,4.461304868506877e-5
-3.7397817036816936,4.2204411136101405e-5
-3.7354085544063325,4.002814810574046e-5
-3.7310354051309718,3.808104367390708e-5
-3.726662255855611,3.636024600073284e-5
-3.72228910658025,3.486330153381831e-5
-3.717915957304889,3.358818628280448e-5
-3.7135428080295285,3.2533334033184313e-5
-3.7091696587541674,3.16976613772748e-5
-3.7047965094788067,3.108058944289657e-5
-3.700423360203446,3.0682062207049166e-5
-3.696050210928085,3.0502561281824797e-5
-3.691677061652724,3.054311706798124e-5
-3.687303912377363,3.080531617103213e-5
-3.6829307631020023,3.129130498117673e-5
-3.6785576138266416,3.2003789322169324e-5
-3.6741844645512804,3.294603007833463e-5
-3.6698113152759197,3.412183471617966e-5
-3.665438166000559,3.553554462298533e-5
-3.661065016725198,3.7192018192428594e-5
-3.656691867449837,3.909660959832209e-5
-3.6523187181744765,4.125514320844209e-5
-3.6479455688991154,4.367388360144303e-5
-3.6435724196237547,4.635950116825549e-5
-3.639199270348394,4.931903329399162e-5
-3.634826121073033,5.2559841137174435e-5
-3.630452971797672,5.60895620424634e-5
-3.6260798225223114,5.991605765176544e-5
-3.6217066732469503,6.404735779875007e-5
-3.6173335239715896,6.849160030488258e-5
-3.612960374696229,7.325696682427066e-5
-3.6085872254208677,7.835161491741294e-5
-3.604214076145507,8.378360656832382e-5
-3.599840926870146,8.956083339652088e-5
-3.595467777594785,9.569093885308626e-5
-3.5910946283194245,0.00010218123772863519
-3.5867214790440634,0.00010903863334005108
-3.5823483297687027,0.00011626953280476429
-3.577975180493342,0.00012387976084961283
-3.573602031217981,0.0001318744726405991
-3.56922888194262,0.0001402580661608102
-3.5648557326672594,0.00014903409469605756
-3.5604825833918983,0.00015820518002891172
-3.5561094341165376,0.00016777292696648627
-3.551736284841177,0.0001777378398633931
-3.5473631355658157,0.00018809924182129796
-3.542989986290455,0.00019885519727011903
-3.5386168370150943,0.0002100024386502653
-3.534243687739733,0.00022153629792759475
-3.5298705384643725,0.00023345064367567093
-3.525497389189012,0.0002457378244592825
-3.5211242399136506,0.00025838861924512525
-3.51675109063829,0.000271392195548944
-3.512377941362929,0.00028473607600726706
-3.508004792087568,0.0002984061140300356
-3.5036316428122074,0.0003123864791544453
-3.4992584935368463,0.000326659652672
-3.4948853442614856,0.0003412064340508746
-3.490512194986125,0.00035600595861193566
-3.4861390457107637,0.0003710357268509149
-3.481765896435403,0.00038627164572252297
-3.4773927471600423,0.00040168808212234975
-3.473019597884681,0.00041725792871438744
-3.4686464486093205,0.00043295268215820103
-3.4642732993339598,0.000448742533694351
-3.4599001500585986,0.0004645964719434191
-3.455527000783238,0.0004804823976708332
-3.4511538515078772,0.0004963672501630111
-3.446780702232516,0.0005122171447527217
-3.4424075529571554,0.0005279975209248305
-3.4380344036817947,0.0005436733003265241
-3.4336612544064335,0.0005592090539028177
-3.429288105131073,0.0005745691772774718
-3.4249149558557117,0.0005897180734022097
-3.420541806580351,0.0006046203414094137
-3.4161686573049903,0.0006192409705152739
-3.411795508029629,0.0006335455377498686
-3.4074223587542685,0.0006475004082188945
-3.4030492094789078,0.0006610729365469874
-3.3986760602035466,0.0006742316681046731
-3.394302910928186,0.0006869465385858295
-3.3899297616528252,0.000699189070479514
-3.385556612377464,0.000710932564967879
-3.3811834631021034,0.0007221522877840086
-3.3768103138267427,0.0007328256475795311
-3.3724371645513815,0.0007429323653797698
-3.368064015276021,0.0007524546337440915
-3.36369086600066,0.000761377264306369
-3.359317716725299,0.0007696878224365197
-3.3549445674499383,0.000777376747844713
-3.3505714181745776,0.0007844374600387144
-3.3461982688992165,0.0007908664476534086
-3.3418251196238558,0.0007966633407766911
-3.337451970348495,0.0008018309655240079
-3.333078821073134,0.0008063753802405281
-3.328705671797773,0.0008103058928479873
-3.324332522522412,0.0008136350589954232
-3.3199593732470514,0.0008163786608194681
-3.3155862239716907,0.000818555666269748
-3.3112130746963295,0.0008201881691070403
-3.306839925420969,0.0008213013098290981
-3.302466776145608,0.0008219231779340065
-3.298093626870247,0.0008220846960719438
-3.2937204775948863,0.0008218194867819478
-3.2893473283195256,0.0008211637226448326
-3.2849741790441644,0.0008201559608121672
-3.2806010297688037,0.0008188369629946162
-3.276227880493443,0.0008172495020990905
-3.271854731218082,0.0008154381568113208
-3.267481581942721,0.0008134490955035416
-3.2631084326673605,0.0008113298509280671
-3.2587352833919994,0.0008091290872186407
-3.2543621341166387,0.0008068963607739746
-3.249988984841278,0.0008046818766325181
-3.245615835565917,0.0008025362419699297
-3.241242686290556,0.0008005102183607851
-3.236869537015195,0.0007986544744360419
-3.2324963877398343,0.0007970193405519889
-3.2281232384644736,0.0007956545670485156
-3.2237500891891124,0.0007946090876308487
-3.2193769399137517,0.0007939307893474849
-3.215003790638391,0.0007936662905668225
-3.21063064136303,0.0007938607282721791
-3.206257492087669,0.0007945575559041296
-3.2018843428123085,0.0007957983528771237
-3.1975111935369473,0.0007976226467887766
-3.1931380442615866,0.0008000677492264567
-3.188764894986226,0.0008031686059537871
-3.184391745710865,0.0008069576621362318
-3.180018596435504,0.0008114647431387931
-3.1756454471601434,0.000816716951296842
-3.1712722978847823,0.000822738578938902
-3.1668991486094216,0.000829551037805458
-3.162525999334061,0.00083717280488994
-3.1581528500586997,0.0008456193846010773
-3.153779700783339,0.0008549032870342685
-3.149406551507978,0.0008650340220245547
-3.145033402232617,0.0008760181085533392
-3.1406602529572565,0.000887859098983361
-3.1362871036818953,0.0009005576175066419
-3.1319139544065346,0.0009141114121159859
-3.127540805131174,0.0009285154193358512
-3.123167655855813,0.0009437618408930076
-3.118794506580452,0.000959840231456309
-3.1144213573050914,0.0009767375965369328
-3.1100482080297303,0.000994438499611821
-3.1056750587543696,0.0010129251775153822
-3.101301909479009,0.0010321776631360587
-3.0969287602036477,0.0010521739144565868
-3.092555610928287,0.0010728899489885653
-3.0881824616529263,0.0010942999826699731
-3.083809312377565,0.0011163765723240897
-3.0794361631022045,0.0011390907608125403
-3.0750630138268438,0.0011624122240571078
-3.0706898645514826,0.0011863094191518018
-3.066316715276122,0.0012107497328401
-3.0619435660007612,0.001235699629685531
-3.0575704167254,0.001261124799323922
-3.0531972674500394,0.0012869903022451439
-3.0488241181746782,0.0013132607136118364
-3.0444509688993175,0.0013399002646831554
-3.040077819623957,0.0013668729814710207
-3.0357046703485957,0.0013941428203105288
-3.031331521073235,0.0014216738000825298
-3.0269583717978743,0.0014494301308722434
-3.022585222522513,0.0014773763388948487
-3.0182120732471525,0.0015054773875569187
-3.0138389239717918,0.0015336987945566791
-3.0094657746964306,0.0015620067449523892
-3.00509262542107,0.0015903682001499426
-3.000719476145709,0.0016187510027746953
-2.996346326870348,0.0016471239773988141
-2.9919731775949874,0.0016754570270985907
-2.9876000283196267,0.0017037212258084787
-2.9832268790442655,0.0017318889064290967
-2.978853729768905,0.0017599337446287076
-2.974480580493544,0.0017878308382563747
-2.970107431218183,0.0018155567822594892
-2.9657342819428223,0.0018430897389691107
-2.961361132667461,0.0018704095035843755
-2.9569879833921004,0.0018974975646563197
-2.9526148341167398,0.0019243371593349792
-2.9482416848413786,0.001950913323114048
-2.943868535566018,0.0019772129337731915
-2.939495386290657,0.002003224749192156
-2.935122237015296,0.0020289394386847764
-2.9307490877399354,0.0020543496074810104
-2.9263759384645747,0.002079449813973705
-2.9220027891892135,0.0021042365793351673
-2.917629639913853,0.0021287083891140812
-2.913256490638492,0.002152865686428033
-2.908883341363131,0.0021767108563869268
-2.9045101920877703,0.0022002482014081993
-2.9001370428124096,0.002223483907121928
-2.8957638935370484,0.0022464259986100417
-2.8913907442616877,0.0022690842867809594
-2.887017594986327,0.002291470304744565
-2.882644445710966,0.0023135972341310675
-2.878271296435605,0.0023354798213773235
-2.873898147160244,0.0023571342840994856
-2.8695249978848834,0.0023785782077672853
-2.8651518486095227,0.002399830433002419
-2.8607786993341615,0.002420910933933181
-2.856405550058801,0.0024418406881497367
-2.85203240078344,0.0024626415389242704
-2.847659251508079,0.0024833360504729557
-2.8432861022327183,0.0025039473571549327
-2.8389129529573576,0.0025244990076168042
-2.8345398036819964,0.002545014804998214
-2.8301666544066357,0.0025655186444191805
-2.825793505131275,0.002586034349063444
-2.821420355855914,0.0026065855062573015
-2.817047206580553,0.0026271953050184867
-2.8126740573051925,0.0026478863766111888
-2.8083009080298313,0.002668680639690139
-2.8039277587544706,0.0026895991516479017
-2.79955460947911,0.0027106619677969186
-2.795181460203749,0.0027318880100133027
-2.790808310928388,0.002753294946448671
-2.7864351616530274,0.002774899083878306
-2.7820620123776663,0.0027967152741924795
-2.7776888631023056,0.0028187568364596953
-2.7733157138269444,0.0028410354958937917
-2.7689425645515837,0.0028635613409379885
-2.764569415276223,0.0028863427995447725
-2.760196266000862,0.002909386635577292
-2.755823116725501,0.002932697966088909
-2.7514499674501405,0.0029562803000531754
-2.7470768181747793,0.0029801355989199155
-2.7427036688994186,0.0030042643591626497
-2.738330519624058,0.0030286657167652355
-2.733957370348697,0.0030533375733697403
-2.729584221073336,0.0030782767435756564
-2.7252110717979754,0.003103479122647441
-2.7208379225226142,0.003128939873655234
-2.7164647732472536,0.0031546536328395268
-2.712091623971893,0.0031806147317694072
-2.7077184746965317,0.003206817434641282
-2.703345325421171,0.0032332561888629985
-2.6989721761458103,0.003259925886870449
-2.694599026870449,0.0032868221369484283
-2.6902258775950885,0.0033139415406666164
-2.6858527283197273,0.003341281974401984
-2.6814795790443666,0.003368842872302498
-2.677106429769006,0.0033966255079542545
-2.672733280493645,0.0034246332719468017
-2.668360131218284,0.0034528719424937885
-2.6639869819429234,0.0034813499462522804
-2.6596138326675622,0.0035100786065056103
-2.6552406833922015,0.0035390723759199955
-2.650867534116841,0.0035683490511639326
-2.6464943848414797,0.00359792996678664
-2.642121235566119,0.003627840165888639
-2.6377480862907583,0.0036581085452808563
-2.633374937015397,0.003688767973023522
-2.6290017877400365,0.0037198553764495297
-2.6246286384646758,0.0037514117990225804
-2.6202554891893146,0.0037834824246394897
-2.615882339913954,0.003816116568271172
-2.611509190638593,0.003849367632135031
-2.607136041363232,0.0038832930269019567
-2.6027628920878714,0.003917954057769147
-2.5983897428125102,0.003953415775556058
-2.5940165935371495,0.0039897467933197135
-2.589643444261789,0.004027019069318991
-2.5852702949864277,0.004065307657491124
-2.580897145711067,0.004104690426932078
-2.5765239964357063,0.004145247752184609
-2.572150847160345,0.004187062176447407
-2.5677776978849844,0.004230218050100258
-2.5634045486096237,0.004274801147209054
-2.5590313993342626,0.004320898262919913
-2.554658250058902,0.004368596794866762
-2.550285100783541,0.0044179843119102466
-2.54591195150818,0.004469148113683008
-2.5415388022328194,0.004522174784544331
-2.5371656529574587,0.004577149745640949
