Values,Density
-7.44835909929333,1.3096524149880384e-7
-7.44086204585045,1.3419580860429825e-7
-7.4333649924075695,1.3898331110984152e-7
-7.42586793896469,1.4537450711282762e-7
-7.41837088552181,1.5342974379883856e-7
-7.41087383207893,1.6322332911655746e-7
-7.40337677863605,1.7484397021871878e-7
-7.39587972519317,1.8839527918257382e-7
-7.38838267175029,2.0399634578782688e-7
-7.38088561830741,2.2178237937819922e-7
-7.37338856486453,2.4190541851598635e-7
-7.365891511421649,2.6453511034474353e-7
-7.35839445797877,2.89859558577632e-7
-7.35089740453589,3.180862412910379e-7
-7.34340035109301,3.49442997524263e-7
-7.3359032976501295,3.841790830599878e-7
-7.32840624420725,4.2256629478876206e-7
-7.32090919076437,4.6490016267219936e-7
-7.31341213732149,5.11501208944054e-7
-7.3059150838786096,5.627162729116009e-7
-7.298418030435729,6.189198997613721e-7
-7.29092097699285,6.805157923006622e-7
-7.28342392354997,7.479383224151537e-7
-7.27592687010709,8.216541002303845e-7
-7.268429816664209,9.021635979655773e-7
-7.26093276322133,9.900028245385384e-7
-7.25343570977845,1.0857450478685138e-6
-7.24593865633557,1.1900025590760865e-6
-7.2384416028926895,1.3034284749163794e-6
-7.23094454944981,1.426718571756469e-6
-7.22344749600693,1.560613145823453e-6
-7.21595044256405,1.7058988919516072e-6
-7.2084533891211695,1.8634107944036533e-6
-7.200956335678289,2.034034020672931e-6
-7.19345928223541,2.2187058106774935e-6
-7.18596222879253,2.4184173500879907e-6
-7.17846517534965,2.6342156199160756e-6
-7.170968121906769,2.867205209570187e-6
-7.16347106846389,3.118550082735526e-6
-7.15597401502101,3.389475284063968e-6
-7.14847696157813,3.6812685730446167e-6
-7.140979908135249,3.9952819721020445e-6
-7.133482854692369,4.3329332144537505e-6
-7.12598580124949,4.695707077367016e-6
-7.11848874780661,5.085156584683746e-6
-7.1109916943637295,5.502904063833455e-6
-7.103494640920849,5.950642040067171e-6
-7.09599758747797,6.430133952101558e-6
-7.08850053403509,6.943214671248799e-6
-7.0810034805922095,7.491790808003811e-6
-7.073506427149329,8.077840787159944e-6
-7.066009373706449,8.703414675667381e-6
-7.05851232026357,9.370633744516148e-6
-7.05101526682069,1.0081689747966967e-5
-7.043518213377809,1.0838843903235914e-5
-7.036021159934929,1.1644425553536527e-5
-7.02852410649205,1.2500830499345868e-5
-7.02102705304917,1.341051898112039e-5
-7.013529999606289,1.437601330057524e-5
-7.006032946163409,1.5399895065340346e-5
-6.998535892720529,1.648480204567834e-5
-6.99103883927765,1.7633424631309253e-5
-6.9835417858347695,1.884850187874095e-5
-6.976044732391889,2.0132817141380564e-5
-6.968547678949009,2.148919327513892e-5
-6.96105062550613,2.2920487415607933e-5
-6.9535535720632495,2.442958532418828e-5
-6.946056518620369,2.6019395302799998e-5
-6.938559465177489,2.7692841679288066e-5
-6.931062411734609,2.9452857868315137e-5
-6.92356535829173,3.1302379014747084e-5
-6.916068304848849,3.324433422954246e-5
-6.908571251405969,3.528163843124436e-5
-6.901074197963089,3.741718380843775e-5
-6.89357714452021,3.9653830922310295e-5
-6.886080091077329,4.1994399471271225e-5
-6.878583037634449,4.4441658742197174e-5
-6.871085984191569,4.6998317777399365e-5
-6.863588930748689,4.9667015287612956e-5
-6.8560918773058095,5.24503093465834e-5
-6.848594823862929,5.5350666904132196e-5
-6.841097770420049,5.83704531586216e-5
-6.833600716977169,6.151192083261783e-5
-6.8261036635342895,6.477719939803912e-5
-6.818606610091409,6.816828429971004e-5
-6.811109556648529,7.168702622942398e-5
-6.803612503205649,7.533512050423132e-5
-6.79611544976277,7.91140966045871e-5
-6.788618396319889,8.302530793125691e-5
-6.781121342877009,8.706992183921342e-5
-6.773624289434129,9.124891001004772e-5
-6.766127235991249,9.556303922423357e-5
-6.7586301825483694,0.00010001286259536321
-6.751133129105489,0.00010459871132851304
-6.743636075662609,0.00010932068706582913
-6.736139022219729,0.00011417865487968037
-6.7286419687768495,0.00011917223697487014
-6.721144915333969,0.00012430080715892253
-6.713647861891089,0.00012956348613737305
-6.706150808448209,0.00013495913768933566
-6.698653755005329,0.00014048636577519225
-6.691156701562449,0.00014614351262582292
-6.683659648119569,0.00015192865785809435
-6.676162594676689,0.000157839618658289
-6.668665541233809,0.00016387395106965677
-6.661168487790929,0.00017002895241633462
-6.653671434348049,0.00017630166488962623
-6.646174380905169,0.00018268888031771485
-6.638677327462289,0.00018918714613355356
-6.631180274019409,0.00019579277254945255
-6.623683220576529,0.00020250184094030817
-6.616186167133649,0.00020931021343070875
-6.608689113690769,0.00021621354367421788
-6.601192060247889,0.00022320728880603508
-6.593695006805009,0.0002302867225427137
-6.586197953362129,0.00023744694939678568
-6.578700899919249,0.00024468291996440975
-6.571203846476369,0.0002519894472399935
-6.5637067930334885,0.00025936122390241446
-6.556209739590609,0.0002667928405121352
-6.548712686147729,0.0002742788045511208
-6.541215632704849,0.0002818135602313098
-6.5337185792619685,0.000289391508992232
-6.526221525819089,0.0002970070306016798
-6.518724472376209,0.00030465450476903876
-6.511227418933329,0.0003123283331763404
-6.503730365490449,0.00032002296182737566
-6.496233312047568,0.0003277329036131104
-6.488736258604689,0.0003354527609873292
-6.481239205161809,0.00034317724864568874
-6.473742151718929,0.00035090121609885044
-6.466245098276048,0.00035861967003056675
-6.458748044833169,0.0003663277963314132
-6.451250991390289,0.0003740209816990871
-6.443753937947409,0.00038169483469870156
-6.4362568845045285,0.0003893452061785943
-6.428759831061648,0.00039696820893964655
-6.421262777618769,0.00040456023656123717
-6.413765724175889,0.0004121179812900514
-6.4062686707330085,0.00041963845090502595
-6.398771617290128,0.000427118984476079
-6.391274563847249,0.00043455726694212327
-6.383777510404369,0.0004419513424401937
-6.376280456961489,0.0004492996263261509
-6.368783403518608,0.00045660091583497615
-6.361286350075729,0.0004638543993376043
-6.353789296632849,0.0004710596641606369
-6.346292243189969,0.0004782167029434223
-6.338795189747088,0.00048532591851863354
-6.331298136304208,0.0004923881273094345
-6.323801082861329,0.0004994045612486528
-6.316304029418449,0.0005063768682326388
-6.3088069759755685,0.0005133071111343345
-6.301309922532688,0.0005201977654072636
-6.293812869089809,0.0005270517153231711
-6.286315815646929,0.0005338722488930359
-6.2788187622040486,0.0005406630515305457
-6.271321708761168,0.000547428198524256
-6.263824655318288,0.0005541721463923508
-6.256327601875409,0.0005608997231992627
-6.248830548432529,0.0005676161179205214
-6.241333494989648,0.0005743268689458159
-6.233836441546768,0.0005810378518154645
-6.226339388103889,0.0005877552662871084
-6.218842334661009,0.0005944856228338301
-6.2113452812181285,0.0006012357286740034
-6.203848227775248,0.0006080126734348485
-6.196351174332368,0.000614823814550516
-6.188854120889489,0.0006216767624936982
-6.1813570674466085,0.0006285793659375483
-6.173860014003728,0.0006355396969402816
-6.166362960560848,0.000642566036241173
-6.158865907117969,0.0006496668587500773
-6.151368853675089,0.0006568508193074496
-6.143871800232208,0.00066412673878323
-6.136374746789328,0.0006715035905763399
-6.128877693346448,0.0006789904875670535
-6.121380639903569,0.0006865966695655448
-6.113883586460688,0.0006943314912898858
-6.106386533017808,0.0007022044108975951
-6.098889479574928,0.0007102249790826107
-6.091392426132049,0.0007184028287400513
-6.0838953726891685,0.0007267476651906827
-6.076398319246288,0.0007352692569440062
-6.068901265803408,0.0007439774269711649
-6.061404212360528,0.0007528820444450048
-6.0539071589176485,0.0007619930168971459
-6.046410105474768,0.0007713202827306417
-6.038913052031888,0.0007808738040179959
-6.031415998589008,0.0007906635595050678
-6.023918945146129,0.0008006995377348065
-6.016421891703248,0.0008109917301969242
-6.008924838260368,0.0008215501244032237
-6.001427784817488,0.0008323846967843397
-5.993930731374609,0.0008435054052991341
-5.986433677931728,0.0008549221816452476
-5.978936624488848,0.0008666449229579425
-5.971439571045968,0.0008786834828848388
-5.963942517603088,0.000891047661923855
-5.9564454641602085,0.0009037471969159773
-5.948948410717328,0.0009167917495868476
-5.941451357274448,0.0009301908940376729
-5.933954303831568,0.000943954103091291
-5.9264572503886885,0.0009580907334086116
-5.918960196945808,0.0009726100092988504
-5.911463143502928,0.000987521005158254
-5.903966090060048,0.0010028326264829423
-5.896469036617168,0.0010185535894152165
-5.888971983174288,0.001034692398796333
-5.881474929731408,0.0010512573247129786
-5.873977876288528,0.0010682563775410818
-5.866480822845648,0.0010856972815072117
-5.858983769402768,0.0011035874468034584
-5.851486715959888,0.0011219339403105225
-5.843989662517008,0.0011407434550012724
-5.836492609074128,0.0011600222781138567
-5.828995555631248,0.0011797762582028727
-5.821498502188368,0.0012000107711936624
-5.814001448745488,0.001220730685583241
-5.806504395302608,0.0012419403269473203
-5.799007341859728,0.0012636434419303188
-5.791510288416848,0.0012858431619098623
-5.784013234973968,0.001308541966542674
-5.776516181531088,0.001331741647411601
-5.769019128088208,0.0013554432720063823
-5.7615220746453275,0.0013796471482811481
-5.754025021202448,0.0014043527900412904
-5.746527967759568,0.0014295588834197029
-5.739030914316688,0.0014552632547090334
-5.731533860873808,0.0014814628398198346
-5.724036807430928,0.0015081536556371157
-5.716539753988048,0.001535330773548043
-5.709042700545168,0.001562988295411332
-5.701545647102288,0.0015911193322349776
-5.694048593659407,0.001619715985822806
-5.686551540216528,0.0016487693336422159
-5.679054486773648,0.001678269417154439
-5.671557433330768,0.0017082052338374676
-5.6640603798878875,0.001738564733115313
-5.656563326445008,0.001769334816392732
-5.649066273002128,0.0018005013413744282
-5.641569219559248,0.0018320491308290547
-5.6340721661163675,0.0018639619859346767
-5.626575112673487,0.0018962227043206603
-5.619078059230608,0.0019288131028948954
-5.611581005787728,0.0019617140455190207
-5.604083952344848,0.0019949054755686226
-5.596586898901967,0.0020283664533848385
-5.589089845459088,0.002062075198598072
-5.581592792016208,0.0020960091372717003
-5.574095738573328,0.0021301449537879397
-5.566598685130447,0.0021644586473649093
-5.559101631687568,0.0021989255930675196
-5.551604578244688,0.002233520607143111
-5.544107524801808,0.002268218016486606
-5.5366104713589275,0.0023029917320110463
-5.529113417916047,0.0023378153256730094
-5.521616364473168,0.002372662110877396
-5.514119311030288,0.0024075052259620987
-5.5066222575874075,0.002442317720441046
-5.499125204144527,0.0024770726436633274
-5.491628150701648,0.0025117431355284273
-5.484131097258768,0.002546302518880686
-5.476634043815888,0.0025807243931930427
-5.469136990373007,0.002614982729137627
-5.461639936930127,0.002649051963632982
-5.454142883487248,0.0026829070949501333
-5.446645830044368,0.002716523777457036
-5.439148776601487,0.002749878415578953
-5.431651723158607,0.0027829482565549586
-5.424154669715728,0.0028157114815744394
-5.416657616272848,0.002848147294884465
-5.4091605628299675,0.0028802360104694886
-5.401663509387087,0.0029119591359155436
-5.394166455944207,0.0029432994530872126
-5.386669402501328,0.002974241095262008
-5.3791723490584475,0.0030047696203856023
-5.371675295615567,0.0030348720801334625
-5.364178242172687,0.0030645370844871057
-5.356681188729808,0.003093754861557781
-5.349184135286928,0.00312251731241727
-5.341687081844047,0.00315081806072255
-5.334190028401167,0.0031786524969505715
-5.326692974958287,0.0032060178170873425
-5.319195921515408,0.0032329130556475417
-5.3116988680725274,0.003259339112929697
-5.304201814629647,0.0032852987764437516
-5.296704761186767,0.0033107967364768625
-5.289207707743888,0.0033358395957955537
-5.2817106543010075,0.0033604358735090213
-5.274213600858127,0.0033845960031495953
-5.266716547415247,0.0034083323250525405
-5.259219493972367,0.003431659073144292
-5.251722440529488,0.003454592356273177
-5.244225387086607,0.003477150134240131
-5.236728333643727,0.003499352188708421
-5.229231280200847,0.003521220089191656
-5.221734226757968,0.003542777154336395
-5.214237173315087,0.003564048408732392
-5.206740119872207,0.0035850605354961033
-5.199243066429327,0.003605841824885027
-5.191746012986447,0.003626422119209924
-5.1842489595435675,0.0036468327543172883
-5.176751906100687,0.0036671064979210896
-5.169254852657807,0.0036872774850637315
-5.161757799214927,0.0037073811509873676
-5.1542607457720475,0.0037274541616940434
-5.146763692329167,0.0037475343424707083
-5.139266638886287,0.003767660604648518
-5.131769585443407,0.0037878728708586034
-5.124272532000528,0.0038082119990390257
-5.116775478557647,0.003828719705435255
-5.109278425114767,0.003849438486827759
-5.101781371671887,0.0038704115422046985
-5.094284318229007,0.0038916826940882023
-5.086787264786127,0.00391329630970472
-5.079290211343247,0.003935297222179536
-5.071793157900367,0.003957730651917396
-5.064296104457487,0.003980642128319355
-5.0567990510146075,0.004004077411969686
-5.049301997571727,0.0040280824174131315
-5.041804944128847,0.004052703136629016
-5.034307890685967,0.004077985563295887
-5.026810837243087,0.0041039756179279
-5.019313783800207,0.004130719073952866
-5.011816730357327,0.004158261484792566
-5.004319676914447,0.004186648111995549
-4.996822623471567,0.004215923854466615
-4.989325570028687,0.004246133178829773
-4.981828516585807,0.004277320050957338
-4.974331463142927,0.004309527868693595
-4.966834409700047,0.0043427993958009056
-4.9593373562571665,0.0043771766971541105
-4.951840302814287,0.00441270107521137
-4.944343249371407,0.004449413007790807
-4.936846195928527,0.004487352087186973
-4.929349142485647,0.004526556960665576
-4.921852089042767,0.0045670652723805265
-4.914355035599887,0.004608913606765377
-4.906857982157007,0.00465213743345815
-4.899360928714127,0.004696771053828087
-4.891863875271246,0.004742847549181119
-4.884366821828367,0.004790398730731383
-4.876869768385487,0.004839455091436089
-4.869372714942607,0.004890045759799493
-4.8618756614997265,0.00494219845576405
-4.854378608056847,0.004995939448814548
-4.846881554613967,0.005051293518430748
-4.839384501171087,0.005108283917032998
-4.8318874477282066,0.005166932335572704
-4.824390394285326,0.005227258871926
-4.816893340842447,0.005289282002255466
-4.809396287399567,0.005353018555508775
-4.801899233956687,0.005418483691225594
-4.794402180513806,0.005485690880827447
-4.786905127070927,0.005554651892562872
-4.779408073628047,0.005625376780280586
-4.771911020185167,0.005697873876199447
-4.7644139667422865,0.0057721497878375685
-4.756916913299406,0.00584820939925834
-4.749419859856527,0.005926055876779766
-4.741922806413647,0.006005690679285514
-4.7344257529707665,0.006087113573261053
-4.726928699527886,0.00617032265266616
-4.719431646085007,0.006255314363738756
-4.711934592642127,0.006342083534806604
-4.704437539199247,0.006430623411166004
-4.696940485756366,0.006520925695065254
-4.689443432313487,0.006612980590809274
-4.681946378870607,0.006706776854979548
-4.674449325427727,0.006802301851738718
-4.666952271984846,0.006899541613165975
-4.659455218541966,0.0069984809045432715
-4.651958165099087,0.007099103294486143
-4.644461111656207,0.007201391229788728
-4.6369640582133265,0.0073053261148241285
-4.629467004770446,0.007410888395316874
-4.621969951327567,0.0075180576462770335
-4.614472897884687,0.007626812663860972
-4.6069758444418065,0.00773713156089831
-4.599478790998926,0.007848991865800226
-4.591981737556046,0.007962370624541606
-4.584484684113167,0.00807724450538675
-4.576987630670287,0.008193589906008068
-4.569490577227406,0.008311383062626921
-4.561993523784526,0.008430600160788077
-4.554496470341647,0.00855121744736324
-4.546999416898767,0.008673211343363761
-4.539502363455886,0.008796558557130345
-4.532005310013006,0.008921236197457133
-4.524508256570126,0.009047221886197148
-4.517011203127247,0.009174493869892126
-4.5095141496843665,0.009303031129962211
-4.502017096241486,0.009432813490991124
-4.494520042798606,0.009563821726640647
-4.487022989355727,0.00969603766273102
-4.4795259359128465,0.009829444277028634
-4.472028882469966,0.00996402579528745
-4.464531829027086,0.010099767783101512
-4.457034775584206,0.010236657233134418
-4.449537722141327,0.01037468264730732
-4.442040668698446,0.01051383411353957
-4.434543615255566,0.0106541033766556
-4.427046561812686,0.01079548390308937
-4.419549508369807,0.01093797093903987
-4.412052454926926,0.011081561561752924
-4.404555401484046,0.011226254723630641
-4.397058348041166,0.011372051288895428
-4.389561294598286,0.011518954062562816
-4.3820642411554065,0.011666967811508255
-4.374567187712526,0.011816099277442902
-4.367070134269646,0.011966357181644686
-4.359573080826766,0.012117752221325499
-4.3520760273838865,0.012270297057548635
-4.344578973941006,0.012424006294645337
-4.337081920498126,0.012578896451115765
-4.329584867055246,0.01273498592203566
-4.322087813612367,0.012892294933026287
-4.314590760169486,0.013050845485883682
-4.307093706726606,0.013210661295999274
-4.299596653283726,0.01337176772174145
-4.292099599840846,0.01353419168600648
-4.2846025463979664,0.013697961590181433
-4.277105492955086,0.013863107220801087
-4.269608439512206,0.014029659649214175
-4.262111386069326,0.014197651124612218
-4.2546143326264465,0.014367114960805309
-4.247117279183566,0.014538085417164988
-4.239620225740686,0.014710597574184732
-4.232123172297806,0.014884687204138925
-4.224626118854926,0.0150603906373506
-4.217129065412046,0.015237744624604265
-4.209632011969166,0.015416786196265216
-4.202134958526286,0.01559755251869021
-4.194637905083406,0.01578008074853301
-4.187140851640526,0.015964407885567897
-4.179643798197646,0.01615057062466857
-4.172146744754766,0.016338605207591835
-4.164649691311886,0.01652854727522588
-4.157152637869006,0.016720431720968383
-4.149655584426126,0.01691429254590332
-4.142158530983246,0.01711016271644452
-4.134661477540366,0.01730807402511137
-4.127164424097486,0.017508056955094185
-4.119667370654606,0.017710140549255918
-4.112170317211726,0.017914352284203763
-4.104673263768846,0.018120717950045093
-4.097176210325966,0.018329261536422004
-4.0896791568830855,0.018540005125392656
-4.082182103440206,0.0187529687916996
-4.074685049997326,0.018968170510933743
-4.067187996554446,0.019185626076066796
-4.0596909431115655,0.01940534902278592
-4.052193889668686,0.019627350564024905
-4.044696836225806,0.01985163953403901
-4.037199782782926,0.02007822234232503
-4.029702729340046,0.020307102937638592
-4.022205675897165,0.020538282782308022
-4.014708622454286,0.020771760836990373
-4.007211569011406,0.0210075335559606
-3.9997145155685256,0.021245594892966874
-3.992217462125646,0.02148593631762786
-3.9847204086827657,0.021728546842289025
-3.977223355239886,0.02197341305919623
-3.9697263017970057,0.022220519187786038
-3.962229248354126,0.022469847131833663
-3.9547321949112457,0.022721376546142612
-3.9472351414683655,0.022975084912402834
-3.9397380880254858,0.023230947623790573
-3.9322410345826055,0.023488938077829376
-3.924743981139726,0.02374902777698295
-3.9172469276968456,0.024011186436401655
-3.909749874253966,0.024275382098201168
-3.9022528208110856,0.024541581251610347
-3.894755767368206,0.024809748958289555
-3.8872587139253256,0.02507984898208642
-3.8797616604824454,0.02535184392246873
-3.8722646070395657,0.025625695350850415
-3.8647675535966854,0.02590136394900748
-3.8572705001538057,0.026178809648767423
-3.8497734467109255,0.026457991772147575
-3.8422763932680457,0.02673886917111472
-3.8347793398251655,0.027021400366140876
-3.8272822863822857,0.027305543682738798
-3.8197852329394055,0.02759125738517424
-3.8122881794965258,0.027878499806571578
-3.8047911260536456,0.028167229474653742
-3.7972940726107653,0.028457405232388336
-3.7897970191678856,0.028748986352846395
-3.7822999657250054,0.029041932647621116
-3.7748029122821256,0.02933620456819882
-3.7673058588392454,0.029631763299723928
-3.7598088053963656,0.02992857084665357
