Values,Density
-5.75956703615716,2.3025227632866851e-7
-5.753972178890828,2.3647927901992993e-7
-5.7483773216244956,2.490555983669651e-7
-5.7427824643581635,2.6822718118824085e-7
-5.7371876070918315,2.943662403831482e-7
-5.731592749825499,3.279751933094044e-7
-5.725997892559167,3.696918932649673e-7
-5.720403035292835,4.202961324528687e-7
-5.7148081780265025,4.80717391920793e-7
-5.7092133207601705,5.520438053630006e-7
-5.7036184634938385,6.355322928475182e-7
-5.6980236062275065,7.326198143420282e-7
-5.6924287489611745,8.449356763695626e-7
-5.6868338916948415,9.743148162433268e-7
-5.6812390344285095,1.122811969872517e-6
-5.6756441771621775,1.2927166135601187e-6
-5.6700493198958455,1.4865685530884853e-6
-5.6644544626295135,1.7071740088803189e-6
-5.6588596053631814,1.957622029979955e-6
-5.653264748096849,2.2413010406507894e-6
-5.647669890830517,2.5619153029010633e-6
-5.6420750335641845,2.923501051271815e-6
-5.6364801762978525,3.330442028603997e-6
-5.6308853190315205,3.787484129741392e-6
-5.625290461765188,4.299748827568672e-6
-5.619695604498856,4.872745037215465e-6
-5.614100747232524,5.51237904539148e-6
-5.608505889966192,6.22496211111212e-6
-5.60291103269986,7.017215328031234e-6
-5.597316175433527,7.896271315505077e-6
-5.591721318167195,8.869672301958786e-6
-5.586126460900863,9.945364150554248e-6
-5.580531603634531,1.1131685879087628e-5
-5.574936746368199,1.2437354230871323e-5
-5.569341889101867,1.3871442864274268e-5
-5.563747031835535,1.5443355749732157e-5
-5.558152174569203,1.7162794391613508e-5
-5.552557317302871,1.903971852839064e-5
-5.546962460036538,2.108430001333903e-5
-5.541367602770206,2.3306869633501776e-5
-5.535772745503874,2.5717856690270127e-5
-5.530177888237542,2.8327721243469762e-5
-5.52458303097121,3.114687900415518e-5
-5.518988173704878,3.418561895829927e-5
-5.513393316438546,3.7454013904865456e-5
-5.507798459172214,4.09618242074254e-5
-5.502203601905881,4.4718395169544576e-5
-5.496608744639549,4.873254857494275e-5
-5.491013887373217,5.301246905458528e-5
-5.485419030106885,5.7565586074152623e-5
-5.479824172840553,6.239845246467745e-5
-5.474229315574221,6.751662054528995e-5
-5.468634458307889,7.292451700780574e-5
-5.463039601041557,7.862531785215272e-5
-5.457444743775224,8.462082476313592e-5
-5.451849886508892,9.091134441666657e-5
-5.44625502924256,9.749557228168901e-5
-5.440660171976228,0.00010437048254648314
-5.435065314709896,0.00011153122584332299
-5.429470457443564,0.00011897103646439037
-5.423875600177232,0.00012668115076485027
-5.4182807429109,0.0001346507384176335
-5.412685885644567,0.00014286684813646228
-5.407091028378235,0.00015131436940005877
-5.401496171111903,0.0001599760116063127
-5.395901313845571,0.00016883230194609557
-5.390306456579239,0.00017786160312767722
-5.384711599312907,0.0001870401518911948
-5.379116742046575,0.00019634211904251539
-5.373521884780243,0.0002057396914954073
-5.367927027513911,0.00021520317656292852
-5.362332170247578,0.00022470112845965166
-5.356737312981246,0.00023420049669616722
-5.351142455714914,0.0002436667957516252
-5.345547598448582,0.00025306429511295653
-5.33995274118225,0.0002623562284682912
-5.334357883915918,0.00027150502055276783
-5.328763026649586,0.0002804725298580328
-5.323168169383254,0.0002892203051504264
-5.317573312116921,0.000297709853493134
-5.311978454850589,0.00030590291724583597
-5.306383597584257,0.000313761757317026
-5.300788740317925,0.0003212494397877245
-5.295193883051593,0.00032833012289648633
-5.289599025785261,0.0003349693412935291
-5.284004168518929,0.0003411342844295076
-5.278409311252597,0.00034679406594463353
-5.272814453986264,0.00035191998097388894
-5.267219596719932,0.0003564857483731674
-5.2616247394536,0.00036046773501110727
-5.256029882187268,0.00036384515944933894
-5.250435024920936,0.00036660027255597596
-5.244840167654604,0.0003687185128581037
-5.239245310388272,0.00037018863472810214
-5.23365045312194,0.0003710028078280983
-5.228055595855607,0.0003711566865796292
-5.222460738589275,0.0003706494487978715
-5.216865881322943,0.000369483803008453
-5.211271024056611,0.0003676659643578463
-5.205676166790279,0.000365205599413944
-5.200081309523947,0.0003621157405463778
-5.194486452257615,0.000358412670944323
-5.188891594991283,0.0003541157816939072
-5.183296737724951,0.00034924740266815816
-5.177701880458618,0.00034383260929439984
-5.172107023192286,0.0003378990075369676
-5.166512165925954,0.0003314764996732158
-5.160917308659622,0.0003245970336427373
-5.15532245139329,0.00031729433890179994
-5.149727594126958,0.00030960365183543663
-5.144132736860626,0.00030156143384021906
-5.138537879594294,0.00029320508522023055
-5.132943022327961,0.0002845726580125987
-5.127348165061629,0.0002757025707952128
-5.121753307795297,0.0002666333284247367
-5.116158450528965,0.0002574032495051906
-5.110563593262633,0.00024805020421066193
-5.104968735996301,0.00023861136487319905
-5.099373878729969,0.00022912297151058466
-5.093779021463637,0.000219620114208177
-5.088184164197304,0.0002101365339915633
-5.082589306930972,0.00020070444353952489
-5.07699444966464,0.00019135436878794237
-5.071399592398308,0.000182115012176705
-5.065804735131976,0.0001730131379968818
-5.060209877865644,0.00016407348000340577
-5.054615020599312,0.0001553186711815164
-5.04902016333298,0.00014676919529169746
-5.043425306066647,0.00013844335957212232
-5.037830448800315,0.00013035728775459294
-5.032235591533983,0.00012252493234850715
-5.026640734267651,0.00011495810497493594
-5.021045877001319,0.00010766652338136664
-5.015451019734987,0.00010065787365016923
-5.009856162468655,9.393788602078419e-5
-5.004261305202323,8.751042267790771e-5
-4.998666447935991,8.137757582236179e-5
-4.993071590669658,7.553977432755334e-5
-4.987476733403326,6.999589729444968e-5
-4.981881876136994,6.474339285459534e-5
-4.976287018870662,5.977840062143611e-5
-4.97069216160433,5.50958762652173e-5
-4.965097304337998,5.0689716772822115e-5
-4.9595024470716655,4.6552885054398745e-5
-4.9539075898053335,4.2677532672299144e-5
-4.948312732539001,3.905511958357099e-5
-4.942717875272669,3.567652991575115e-5
-4.937123018006337,3.2532182922038674e-5
-4.9315281607400046,2.961213839100009e-5
-4.9259333034736725,2.690619591512282e-5
-4.9203384462073405,2.4403987545726716e-5
-4.9147435889410085,2.20950634853799e-5
-4.9091487316746765,1.996897057878269e-5
-4.903553874408344,1.8015323475995687e-5
-4.8979590171420115,1.622386843477125e-5
-4.8923641598756795,1.458453982434299e-5
-4.8867693026093475,1.3087509469881381e-5
-4.8811744453430155,1.1723229048576922e-5
-4.8755795880766835,1.0482465811180453e-5
-4.869984730810351,9.356331950014646e-6
-4.864389873544019,8.336307980156415e-6
-4.8587950162776865,7.414260529992403e-6
-4.8532001590113545,6.582454961907326e-6
-4.8476053017450225,5.833563258451392e-6
-4.8420104444786904,5.160667619416928e-6
-4.836415587212358,4.5572602122047334e-6
-4.830820729946026,4.017239516779063e-6
-4.825225872679694,3.5349036944284495e-6
-4.819631015413362,3.104941393211407e-6
-4.81403615814703,2.722420387791559e-6
-4.808441300880697,2.382774425301222e-6
-4.802846443614365,2.081788628540207e-6
-4.797251586348033,1.8155837786162227e-6
-4.791656729081701,1.5805997755817883e-6
-4.786061871815369,1.3735785439356746e-6
-4.780467014549037,1.191546625950446e-6
-4.774872157282705,1.0317976762985737e-6
-4.769277300016373,8.918750443853013e-7
-4.76368244275004,7.695546079787563e-7
-4.758087585483708,6.628279924404679e-7
-4.752492728217376,5.698862930759996e-7
-4.746897870951044,4.891043902301856e-7
-4.741303013684712,4.190259329222429e-7
-4.73570815641838,3.583490446028986e-7
-4.730113299152048,3.0591279109870584e-7
-4.724518441885716,2.606844346775272e-7
-4.718923584619383,2.2174748772266217e-7
-4.713328727353051,1.882905654622402e-7
-4.707733870086719,1.5959703157306104e-7
-4.702139012820387,1.3503541830203747e-7
-4.696544155554055,1.1405060089744734e-7
-4.690949298287723,9.615569709908733e-8
-4.685354441021391,8.092465987249997e-8
-4.679759583755059,6.798552965210647e-8
-4.674164726488726,5.70143082224972e-8
-4.668569869222394,4.7729416299043675e-8
-4.662975011956062,3.9886696712003455e-8
-4.65738015468973,3.327492325557943e-8
-4.651785297423398,2.7711778748888e-8
-4.646190440157066,2.3040263955075892e-8
-4.640595582890734,1.91255019626373e-8
-4.635000725624402,1.5851904217652896e-8
-4.62940586835807,1.312066515721591e-8
-4.623811011091737,1.0847555698741823e-8
-4.618216153825405,8.960986612894378e-9
-4.612621296559073,7.40031597112889e-9
-4.607026439292741,6.114376342042371e-9
-4.601431582026409,5.060199391448972e-9
-4.595836724760077,4.201919398365284e-9
-4.590241867493745,3.50983559924134e-9
-4.584647010227413,2.959620093272164e-9
-4.57905215296108,2.531655775642183e-9
-4.573457295694748,2.2104932276972855e-9
-4.567862438428416,1.9844170109223347e-9
-4.562267581162084,1.8451117647644288e-9
-4.556672723895752,1.7874237420029138e-9
-4.55107786662942,1.8092114421192074e-9
-4.545483009363088,1.911283646974238e-9
-4.539888152096756,2.0974226192654877e-9
-4.534293294830423,2.374493934809152e-9
-4.528698437564091,2.752644449183217e-9
-4.523103580297759,3.2455920659368864e-9
-4.517508723031427,3.8710138879072264e-9
-4.511913865765095,4.651038564701393e-9
-4.506319008498763,5.612853491883396e-9
-4.500724151232431,6.7894364921827766e-9
-4.495129293966099,8.220426165727462e-9
-4.489534436699766,9.953144200752079e-9
-4.483939579433434,1.204378839410672e-8
-4.478344722167102,1.4558812888544256e-8
-4.47274986490077,1.7576519449743686e-8
-4.467155007634438,2.1188880376622407e-8
-4.461560150368106,2.5503619883061185e-8
-4.455965293101774,3.0646581093175806e-8
-4.450370435835442,3.6764407691358e-8
-4.44477557856911,4.4027572638875856e-8
-4.439180721302777,5.2633785633735e-8
-4.433585864036445,6.28118172847289e-8
-4.427991006770113,7.482577326321793e-8
-4.422396149503781,8.897985866694602e-8
-4.416801292237449,1.0562366998395634e-7
-4.411206434971117,1.2515805318177864e-7
-4.405611577704785,1.4804156743541963e-7
-4.400016720438453,1.747975910092181e-7
-4.39442186317212,2.0602210596028236e-7
-4.388827005905788,2.4239219502571185e-7
-4.383232148639456,2.846752798317531e-7
-4.377637291373124,3.3373912640237424e-7
-4.372042434106792,3.905626370110521e-7
-4.36644757684046,4.5624743999841955e-7
-4.360852719574128,5.320302823002415e-7
-4.355257862307796,6.192962161977178e-7
-4.349663005041463,7.195925637096257e-7
-4.344068147775131,8.346436246864375e-7
-4.338473290508799,9.663660833145182e-7
-4.332878433242467,1.116885047107441e-6
-4.327283575976135,1.288550636127032e-6
-4.321688718709803,1.4839550196266529e-6
-4.316093861443471,1.70594977255101e-6
-4.310499004177139,1.9576634055753963e-6
-4.304904146910807,2.2425188919410893e-6
-4.299309289644474,2.564250992430681e-6
-4.293714432378142,2.926923151465744e-6
-4.28811957511181,3.334943709992373e-6
-4.282524717845478,3.793081153427737e-6
-4.276929860579146,4.306478086747365e-6
-4.271335003312814,4.880663601808928e-6
-4.265740146046482,5.521563678392974e-6
-4.26014528878015,6.235509237369826e-6
-4.254550431513817,7.029241445716559e-6
-4.248955574247485,7.90991385593676e-6
-4.243360716981153,8.885090952067093e-6
-4.237765859714821,9.962742667804557e-6
-4.232171002448489,1.1151234438637898e-5
-4.226576145182157,1.2459312361469085e-5
-4.220981287915825,1.389608304153505e-5
-4.215386430649493,1.5470987732994502e-5
-4.20979157338316,1.719377040648696e-5
-4.204196716116828,1.9074439416078313e-5
-4.198601858850496,2.1123222487432565e-5
-4.193007001584164,2.335051480665534e-5
-4.187412144317832,2.576682005681397e-5
-4.1818172870515,2.8382684328969956e-5
-4.1762224297851676,3.120862291993565e-5
-4.1706275725188355,3.425504012943121e-5
-4.165032715252503,3.7532142270045794e-5
-4.159437857986171,4.104984422212125e-5
-4.153843000719839,4.4817669980978765e-5
-4.148248143453507,4.8844647770994974e-5
-4.1426532861871745,5.313920042951739e-5
-4.1370584289208425,5.7709031892856383e-5
-4.1314635716545105,6.256101074670868e-5
-4.1258687143881785,6.77010519309902e-5
-4.1202738571218465,7.313399781025691e-5
-4.1146789998555136,7.886349993725845e-5
-4.1090841425891815,8.489190293974654e-5
-4.1034892853228495,9.122013205376976e-5
-4.0978944280565175,9.784758590296923e-5
-4.0922995707901855,0.00010477203618126582
-4.0867047135238534,0.000111989535934825
-4.081109856257521,0.00011949433815320633
-4.075514998991189,0.00012727882637302793
-4.0699201417248565,0.00013533345895672642
-4.0643252844585245,0.00014364672864982005
-4.0587304271921925,0.00015220513892348977
-4.05313556992586,0.0001609931984891651
-4.047540712659528,0.00016999343521965915
-4.041945855393196,0.00017918643052936695
-4.036350998126864,0.00018855087506026817
-4.030756140860532,0.0001980636462835996
-4.0251612835941994,0.00020769990836877472
-4.019566426327867,0.00021743323439339136
-4.013971569061535,0.00022723575066810504
-4.008376711795203,0.00023707830264050288
-4.002781854528871,0.0002469306415219981
-3.9971869972625393,0.00025676163045373554
-3.991592139996207,0.0002665394687052028
-3.985997282729875,0.00027623193207787326
-3.980402425463543,0.00028580662737986984
-3.974807568197211,0.0002952312585443803
-3.9692127109308784,0.0003044739016979446
-3.9636178536645463,0.00031350328624384907
-3.9580229963982143,0.00032228907881647626
-3.9524281391318823,0.000330802166796497
-3.94683328186555,0.0003390149379459287
-3.941238424599218,0.0003469015526449651
-3.935643567332886,0.00035443820517833255
-3.9300487100665538,0.00036160337054117473
-3.9244538528002217,0.00036837803330709833
-3.9188589955338893,0.000374745895229824
-3.9132641382675573,0.0003806935584317237
-3.9076692810012252,0.00038621068126618594
-3.902074423734893,0.0003912901042283103
-3.8964795664685608,0.00039592794361971917
-3.8908847092022287,0.0004001236510516766
-3.8852898519358967,0.0004038800372865442
-3.8796949946695647,0.000407203259367917
-3.8741001374032322,0.0004101027704658585
-3.8685052801369,0.00041259123236272923
-3.862910422870568,0.0004146843910145196
-3.857315565604236,0.0004164009161391029
-3.8517207083379037,0.00041776220629618274
-3.8461258510715717,0.00041879216142422585
-3.8405309938052397,0.00041951692528621395
-3.8349361365389076,0.00041996460072822855
-3.829341279272575,0.0004201649410796749
-3.823746422006243,0.0004201490214010787
-3.818151564739911,0.00041994889361862686
-3.812556707473579,0.0004195972298590943
-3.8069618502072466,0.0004191269585165792
-3.8013669929409146,0.0004185708977350079
-3.7957721356745826,0.0004179613910758606
-3.7901772784082506,0.0004173299501558543
-3.784582421141918,0.00041670690898459135
-3.778987563875586,0.00041612109460727577
-3.773392706609254,0.0004155995184599373
-3.767797849342922,0.0004151670925845634
-3.7622029920765896,0.0004148463745207234
-3.7566081348102576,0.00041465734430651507
-3.7510132775439256,0.00041461721657862156
-3.7454184202775935,0.00041474029027002755
-3.7398235630112615,0.0004150378378768799
-3.734228705744929,0.0004155180356979212
-3.728633848478597,0.00041618593586364126
-3.723038991212265,0.0004170434803661854
-3.717444133945933,0.0004180895566905929
-3.7118492766796005,0.0004193200940377003
-3.7062544194132685,0.0004207281985339831
-3.7006595621469365,0.00042230432524688506
-3.6950647048806045,0.0004240364842812345
-3.689469847614272,0.0004259104777251015
-3.68387499034794,0.0004279101637573949
-3.678280133081608,0.00043001774382469323
-3.672685275815276,0.000432214068453873
-3.6670904185489435,0.00043447895699194085
-3.6614955612826114,0.00043679152636197285
-3.6559007040162794,0.00043913052379543
-3.6503058467499474,0.0004414746584528971
-3.644710989483615,0.0004438029268726074
-3.639116132217283,0.0004460949272948886
-3.633521274950951,0.00044833115809679927
-3.627926417684619,0.000450493295829006
-3.6223315604182864,0.00045256444868123184
-3.6167367031519544,0.0004545293815983731
-3.6111418458856224,0.0004563747097261956
-3.6055469886192903,0.0004580890573785026
-3.599952131352958,0.0004596631802687046
-3.594357274086626,0.00046109004934515496
-3.588762416820294,0.00046236489518236524
-3.583167559553962,0.00046348521251888424
-3.57757270228763,0.0004644507251727993
-3.5719778450212973,0.0004652633122026726
-3.5663829877549653,0.000465926896806173
-3.5607881304886333,0.00046644730004746993
-3.5551932732223013,0.000466832062070202
-3.549598415955969,0.00046709023397249684
-3.544003558689637,0.00046723214399374286
-3.5384087014233048,0.0004672691420690815
-3.5328138441569727,0.00046721332715525944
-3.5272189868906403,0.00046707726200056034
-3.5216241296243083,0.00046687368022842635
-3.5160292723579762,0.0004666151907200299
-3.5104344150916442,0.0004663139843157859
-3.5048395578253118,0.0004659815478095168
-3.4992447005589797,0.0004656283900794046
-3.4936498432926477,0.00046526378499626205
-3.4880549860263157,0.0004648955354663903
-3.4824601287599832,0.0004645297626179471
-3.476865271493651,0.00046417072372313727
-3.471270414227319,0.00046382066198031755
-3.465675556960987,0.00046347969075828926
-3.4600806996946547,0.0004631457143493148
-3.4544858424283227,0.0004628143866868893
-3.4488909851619907,0.000462479108876211
-3.4432961278956586,0.00046213106576927735
-3.437701270629326,0.00046175930119595875
-3.432106413362994,0.00046135083085952974
-3.426511556096662,0.0004608907913172728
-3.42091669883033,0.0004603626229138752
-3.4153218415639977,0.00045974828401801793
-3.4097269842976656,0.00045902849344667
-3.4041321270313336,0.00045818299754559085
-3.3985372697650016,0.00045719085804483387
-3.3929424124986696,0.00045603075651850605
-3.387347555232337,0.00045468131106170034
-3.381752697966005,0.0004531214006519707
-3.376157840699673,0.00045133049258988284
-3.370562983433341,0.00044928896841285246
-3.3649681261670086,0.0004469784437494505
-3.3593732689006766,0.00044438207772153765
-3.3537784116343445,0.000441484867706297
-3.3481835543680125,0.00043827392553771015
-3.34258869710168,0.00043473873154496225
-3.336993839835348,0.00043087136319461825
-3.331398982569016,0.0004266666955099064
-3.325804125302684,0.00042212257088112626
-3.3202092680363515,0.0004172399363462046
-3.3146144107700195,0.0004120229468988772
-3.3090195535036875,0.0004064790338724959
-3.3034246962373555,0.0004006189379306326
-3.297829838971023,0.0003944567066769449
-3.292234981704691,0.0003880096573567098
-3.286640124438359,0.00038129830556036647
-3.281045267172027,0.0003743462612513671
-3.2754504099056945,0.00036718009381135055
-3.2698555526393625,0.00035982916813269775
-3.2642606953730304,0.00035232545408152684
-3.2586658381066984,0.00034470331189887437
-3.253070980840366,0.000336999256307946
-3.247476123574034,0.00032925170224998865
-3.241881266307702,0.00032150069527189535
-3.23628640904137,0.0003137876296510504
-3.2306915517750374,0.00030615495735514156
-3.2250966945087054,0.0002986458909101028
-3.2195018372423734,0.00029130410318353554
-3.2139069799760414,0.00028417342699428973
-3.2083121227097093,0.0002772975573307776
-3.202717265443377,0.0002707197588087836
-3.197122408177045,0.0002644825808285332
-3.191527550910713,0.0002586275827023655
-3.185932693644381,0.00025319507082973043
-3.1803378363780483,0.0002482238497908732
-3.1747429791117163,0.00024375098903045827
-3.1691481218453843,0.00023981160659729966
-3.1635532645790523,0.00023643867121426717
-3.15795840731272,0.00023366282376507562
-3.152363550046388,0.0002315122191095904
-3.1467686927800558,0.00023001238897801335
-3.1411738355137238,0.00022918612654619945
-3.1355789782473913,0.00022905339316105005
-3.1299841209810593,0.0002296312475663807
-3.1243892637147272,0.0002309337978756115
-3.1187944064483952,0.0002329721764436311
-3.1131995491820628,0.00023575453771253153
-3.1076046919157307,0.00023928607903078757
-3.1020098346493987,0.00024356908438480937
-3.0964149773830667,0.00024860299091974004
-3.0908201201167342,0.00025438447806939513
-3.085225262850402,0.00026090757905938584
-3.07963040558407,0.00026816381448492707
-3.074035548317738,0.0002761423476012417
-3.0684406910514057,0.0002848301608904453
-3.0628458337850737,0.0002942122533897227
-3.0572509765187417,0.00030427185817133873
-3.0516561192524096,0.0003149906792623467
