Values,Density
-7.17102000109631,2.2987857552919655e-7
-7.16543040768853,2.3609008729247316e-7
-7.15984081428075,2.4863604702884956e-7
-7.15425122087297,2.677616083648915e-7
-7.14866162746519,2.9383781036812495e-7
-7.143072034057409,3.273654995347708e-7
-7.13748244064963,3.6898054039946615e-7
-7.13189284724185,4.1946029307599053e-7
-7.126303253834069,4.79731334400435e-7
-7.12071366042629,5.508783871427392e-7
-7.11512406701851,6.341544169508051e-7
-7.109534473610729,7.309918433756613e-7
-7.103944880202949,8.430148025206918e-7
-7.09835528679517,9.720523824474636e-7
-7.092765693387389,1.1201527404386402e-6
-7.087176099979609,1.2895979921850875e-6
-7.0815865065718295,1.4829197459292898e-6
-7.075996913164049,1.7029151329617243e-6
-7.070407319756269,1.952663166257529e-6
-7.064817726348489,2.2355412331309665e-6
-7.059228132940709,2.555241506094208e-6
-7.053638539532929,2.915787028268113e-6
-7.0480489461251485,3.3215472062808615e-6
-7.042459352717368,3.7772524147244857e-6
-7.036869759309589,4.288007392869164e-6
-7.0312801659018085,4.859303086982014e-6
-7.025690572494028,5.49702656939266e-6
-7.020100979086249,6.207468642244196e-6
-7.014511385678468,6.997328715729889e-6
-7.008921792270688,7.873716533726705e-6
-7.003332198862908,8.844150308107146e-6
-6.997742605455128,9.916550816654879e-6
-6.992153012047348,1.1099231016945682e-5
-6.986563418639568,1.2400880734467212e-5
-6.980973825231788,1.3830545995182492e-5
-6.975384231824008,1.5397602591456228e-5
-6.969794638416228,1.7111723500679715e-5
-6.964205045008447,1.898283981082924e-5
-6.958615451600668,2.1021094855001865e-5
-6.953025858192888,2.3236791312959e-5
-6.947436264785107,2.564033110363448e-5
-6.941846671377328,2.8242147967670606e-5
-6.936257077969548,3.105263272606268e-5
-6.930667484561767,3.408205129268663e-5
-6.925077891153987,3.734045562476737e-5
-6.9194882977462076,4.0837587903450046e-5
-6.913898704338427,4.458277835482985e-5
-6.908309110930647,4.858483724498597e-5
-6.9027195175228675,5.285194170803753e-5
-6.897129924115087,5.7391518194113006e-5
-6.891540330707307,6.22101214547005e-5
-6.885950737299527,6.731331110660516e-5
-6.880361143891747,7.270552693860316e-5
-6.874771550483967,7.838996424058484e-5
-6.8691819570761865,8.436845054008921e-5
-6.863592363668407,9.064132522495702e-5
-6.858002770260627,9.720732361135839e-5
-6.8524131768528465,0.0001040634670777911
-6.846823583445066,0.00011120496093152202
-6.841233990037287,0.00011862510169448337
-6.835644396629506,0.00012631519549559378
-6.830054803221726,0.00013426448923105003
-6.824465209813946,0.0001424601161020382
-6.818875616406166,0.00015088705706039
-6.813286022998386,0.00015952811958681173
-6.807696429590606,0.00016836393509082892
-6.802106836182826,0.00017737297606294777
-6.796517242775046,0.00018653159392000712
-6.790927649367266,0.00019581407827416047
-6.785338055959485,0.0002051927381228405
-6.779748462551706,0.00021463800520187676
-6.774158869143926,0.00022411855947374743
-6.768569275736145,0.0002336014764418165
-6.762979682328366,0.00024305239568533227
-6.757390088920586,0.00025243570971651
-6.751800495512805,0.00026171477196141463
-6.746210902105025,0.0002708521223754451
-6.7406213086972455,0.0002798097289213389
-6.735031715289465,0.00028854924286982747
-6.729442121881685,0.00029703226563503743
-6.7238525284739055,0.00030522062463329835
-6.718262935066125,0.00031307665545977914
-6.712673341658345,0.00032056348751412916
-6.7070837482505645,0.0003276453300831081
-6.701494154842785,0.00033428775580138237
-6.695904561435005,0.0003404579783688813
-6.6903149680272245,0.0003461251214038896
-6.684725374619445,0.00035126047535515015
-6.679135781211665,0.0003558377394887735
-6.673546187803884,0.00035983324609895756
-6.667956594396104,0.0003632261642696269
-6.662367000988325,0.0003659986807348567
-6.656777407580544,0.00036813615564033203
-6.651187814172764,0.0003696272513007137
-6.645598220764984,0.00037046403236836584
-6.640008627357204,0.0003706420361761706
-6.634419033949424,0.00037016031238013003
-6.628829440541644,0.0003690214314111123
-6.623239847133864,0.00036723146162880027
-6.617650253726084,0.00036479991546325974
-6.612060660318304,0.0003617396652120519
-6.606471066910523,0.0003580668295365061
-6.600881473502744,0.0003538006320565057
-6.595291880094964,0.0003489632337805165
-6.589702286687183,0.00034357954141332053
-6.584112693279404,0.0003376769938615437
-6.5785230998716235,0.00033128532949536216
-6.572933506463843,0.00032443633692660206
-6.567343913056063,0.0003171635922208024
-6.5617543196482835,0.0003095021855761826
-6.556164726240503,0.0003014884405713736
-6.550575132832723,0.0002931596291091687
-6.544985539424943,0.00028455368516373813
-6.539395946017163,0.00027570892037454
-6.533806352609383,0.00026666374442819996
-6.5282167592016025,0.00025745639302551804
-6.522627165793823,0.00024812466605363126
-6.517037572386043,0.0002387056783761804
-6.511447978978262,0.0002292356254171013
-6.505858385570483,0.00021974956545681157
-6.500268792162703,0.00021028122028513008
-6.494679198754922,0.0002008627955662201
-6.489089605347142,0.00019152482197655474
-6.483500011939363,0.00018229601787991823
-6.477910418531582,0.0001732031740062645
-6.472320825123802,0.0001642710603139974
-6.466731231716023,0.00015552235493683508
-6.461141638308242,0.00014697759485314543
-6.455552044900462,0.0001386551476720982
-6.449962451492682,0.0001305712037033696
-6.444372858084902,0.0001227397872821806
-6.438783264677122,0.00011517278614049664
-6.433193671269342,0.00010787999747090271
-6.427604077861561,0.00010086918920516885
-6.422014484453782,9.414617493792854e-5
-6.4164248910460016,8.771490085832112e-5
-6.410835297638221,8.157754301356401e-5
-6.405245704230442,7.573461321369601e-5
-6.3996561108226615,7.01850718972663e-5
-6.394066517414881,6.492644631037048e-5
-6.388476924007101,5.995495240440629e-5
-6.3828873305993215,5.526561892740811e-5
-6.377297737191541,5.0852412272567316e-5
-6.371708143783761,4.6708360745759125e-5
-6.366118550375981,4.2825677024335707e-5
-6.360528956968201,3.919587769855848e-5
-6.354939363560421,3.5809898911082216e-5
-6.3493497701526405,3.265820723698243e-5
-6.343760176744861,2.9730905075658898e-5
-6.338170583337081,2.7017829953637773e-5
-6.3325809899293,2.450864726197266e-5
-6.326991396521521,2.2192936072085168e-5
-6.321401803113741,2.0060267788127306e-5
-6.31581220970596,1.810027750154264e-5
-6.31022261629818,1.6302728012451695e-5
-6.304633022890401,1.4657566571887881e-5
-6.29904342948262,1.3154974480719672e-5
-6.29345383607484,1.1785409752482212e-5
-6.287864242667061,1.0539643106030616e-5
-6.28227464925928,9.408787609591074e-6
-6.2766850558515,8.384322335089345e-6
-6.27109546244372,7.4581104182736e-6
-6.26550586903594,6.622411941589745e-6
-6.25991627562816,5.869892072726812e-6
-6.25432668222038,5.193624901950189e-6
-6.2487370888126,4.58709341970287e-6
-6.24314749540482,4.044186074053657e-6
-6.2375579019970395,3.5591903355253196e-6
-6.231968308589259,3.1267836835824347e-6
-6.22637871518148,2.7420224094354406e-6
-6.2207891217736995,2.400328609458713e-6
-6.215199528365919,2.097475718845776e-6
-6.209609934958139,1.8295729091039048e-6
-6.204020341550359,1.5930486474552419e-6
-6.198430748142579,1.3846336870265707e-6
-6.192841154734799,1.2013437311747532e-6
-6.187251561327019,1.040461984860852e-6
-6.181661967919239,8.995217835733316e-7
-6.176072374511459,7.762894607965531e-7
-6.170482781103678,6.687475930383657e-7
-6.164893187695899,5.750787371722188e-7
-6.159303594288119,4.936497543517326e-7
-6.153714000880338,4.2299679448021266e-7
-6.148124407472559,3.618109972597372e-7
-6.142534814064779,3.089249504401037e-7
-6.136945220656998,2.632999300394845e-7
-6.131355627249218,2.24013936081513e-7
-6.125766033841439,1.902505255418907e-7
-6.120176440433658,1.612884349827537e-7
-6.114586847025878,1.364919773316764e-7
-6.1089972536180985,1.1530219021227417e-7
-6.103407660210318,9.722870970840791e-8
-6.097818066802538,8.184233699082277e-8
-6.092228473394758,6.876826302848471e-8
-6.086638879986978,5.7679916287689537e-8
-6.081049286579198,4.829339317335979e-8
-6.0754596931714175,4.036243443639176e-8
-6.069870099763638,3.367390769004608e-8
-6.064280506355858,2.8043758232287885e-8
-6.0586909129480775,2.331339085670514e-8
-6.053101319540297,1.934644640322336e-8
-6.047511726132518,1.602593947824804e-8
-6.041922132724737,1.325172216404269e-8
-6.036332539316957,1.0938245781355604e-8
-6.030742945909178,9.012588966794688e-9
-6.025153352501397,7.412726585331875e-9
-6.019563759093617,6.0860137623963695e-9
-6.013974165685837,4.9878617486287524e-9
-6.008384572278057,4.080584828369815e-9
-6.002794978870277,3.332398634814382e-9
-5.997205385462497,2.7165519417282624e-9
-5.991615792054716,2.2105768049396346e-9
-5.986026198646937,1.7956419823272896e-9
-5.980436605239157,1.4559967259630824e-9
-5.974847011831376,1.178494565823307e-9
-5.969257418423597,9.521848726157245e-10
-5.963667825015817,7.67965149806038e-10
-5.958078231608036,6.182843681479255e-10
-5.952488638200256,4.968915001679619e-10
-5.9468990447924766,3.986221075447105e-10
-5.941309451384696,3.192182768119167e-10
-5.935719857976916,2.5517647717077097e-10
-5.9301302645691365,2.0361978769756206e-10
-5.924540671161356,1.621906775550741e-10
-5.918951077753576,1.2896099466086497e-10
-5.913361484345796,1.0235692848858946e-10
-5.907771890938016,8.109661553401537e-11
-5.902182297530236,6.413788944392707e-11
-5.8965927041224555,5.063523211834564e-11
-5.891003110714676,3.9904149429226266e-11
-5.885413517306896,3.139132009888357e-11
-5.8798239238991155,2.4650628760447546e-11
-5.874234330491335,1.932291826545196e-11
-5.868644737083556,1.5119711038735772e-11
-5.863055143675775,1.1809747624269562e-11
-5.857465550267995,9.207995477211739e-12
-5.851875956860216,7.166683912984695e-12
-5.846286363452435,5.567921124161046e-12
-5.840696770044655,4.318170820916123e-12
-5.835107176636875,3.3429370382975776e-12
-5.829517583229095,2.5833363226368533e-12
-5.823927989821315,1.9928225736265404e-12
-5.818338396413535,1.534508631273468e-12
-5.812748803005754,1.1795148191495741e-12
-5.807159209597975,9.050538096744276e-13
-5.801569616190195,6.931955010003321e-13
-5.795980022782414,5.299788385926263e-13
-5.790390429374635,4.0446812565875234e-13
-5.784800835966855,3.0815627827252e-13
-5.779211242559074,2.343264471349471e-13
-5.773621649151294,1.778854841205657e-13
-5.7680320557435145,1.3482270855291745e-13
-5.762442462335734,1.0197398481182063e-13
-5.756852868927954,7.696621118213898e-14
-5.7512632755201745,5.802303082447224e-14
-5.745673682112394,4.363176486776865e-14
-5.740084088704614,3.2778033759450764e-14
-5.7344944952968335,2.4544385621161346e-14
-5.728904901889054,1.8379612068408768e-14
-5.723315308481274,1.3721554274759296e-14
-5.7177257150734935,1.020429400699907e-14
-5.712136121665714,7.60741296346179e-15
-5.706546528257934,5.613294117717826e-15
-5.700956934850153,4.2067586393523815e-15
-5.695367341442373,3.110359192426415e-15
-5.689777748034594,2.2837092460148423e-15
-5.684188154626813,1.7101120866613861e-15
-5.678598561219033,1.2410320167355327e-15
-5.673008967811254,9.111092956481937e-16
-5.667419374403473,6.364808853576154e-16
-5.661829780995693,4.653395724307785e-16
-5.656240187587913,3.0948551013598724e-16
-5.650650594180133,1.7314708694593506e-16
-5.645061000772353,1.04788139970724e-16
-5.639471407364573,1.0093922225840046e-16
-5.633881813956793,3.6808663755882876e-17
-5.628292220549013,5.3505377212159644e-17
-5.622702627141233,2.3093506273941244e-17
-5.617113033733452,1.1817803680091998e-17
-5.611523440325673,1.723881454251952e-17
-5.6059338469178925,0.0
-5.600344253510112,0.0
-5.594754660102332,0.0
-5.5891650666945525,0.0
-5.583575473286772,0.0
-5.577985879878992,0.0
-5.572396286471212,0.0
-5.566806693063432,0.0
-5.561217099655652,0.0
-5.5556275062478715,0.0
-5.550037912840092,0.0
-5.544448319432312,0.0
-5.538858726024531,0.0
-5.533269132616752,0.0
-5.527679539208972,0.0
-5.522089945801191,0.0
-5.516500352393411,1.3877787807814457e-17
-5.510910758985632,0.0
-5.505321165577851,0.0
-5.499731572170071,0.0
-5.494141978762292,1.3877787807814457e-17
-5.488552385354511,0.0
-5.482962791946731,1.3877787807814457e-17
-5.477373198538951,0.0
-5.471783605131171,0.0
-5.466194011723391,0.0
-5.460604418315611,0.0
-5.455014824907831,0.0
-5.449425231500051,0.0
-5.443835638092271,0.0
-5.43824604468449,0.0
-5.432656451276711,0.0
-5.4270668578689305,0.0
-5.42147726446115,0.0
-5.415887671053371,0.0
-5.4102980776455905,0.0
-5.40470848423781,0.0
-5.39911889083003,0.0
-5.39352929742225,0.0
-5.38793970401447,0.0
-5.38235011060669,0.0
-5.3767605171989095,0.0
-5.37117092379113,0.0
-5.36558133038335,0.0
-5.359991736975569,0.0
-5.35440214356779,0.0
-5.34881255016001,0.0
-5.343222956752229,0.0
-5.337633363344449,0.0
-5.33204376993667,0.0
-5.326454176528889,0.0
-5.320864583121109,0.0
-5.31527498971333,1.3877787807814457e-17
-5.309685396305549,0.0
-5.304095802897769,1.3877787807814457e-17
-5.298506209489989,1.3877787807814457e-17
-5.292916616082209,0.0
-5.287327022674429,0.0
-5.281737429266649,0.0
-5.276147835858869,0.0
-5.270558242451089,2.7755575615628914e-17
-5.2649686490433085,0.0
-5.259379055635528,2.7755575615628914e-17
-5.253789462227749,0.0
-5.2481998688199685,0.0
-5.242610275412188,0.0
-5.237020682004409,0.0
-5.231431088596628,0.0
-5.225841495188848,0.0
-5.220251901781068,2.7755575615628914e-17
-5.214662308373288,0.0
-5.209072714965508,0.0
-5.203483121557728,0.0
-5.197893528149948,0.0
-5.192303934742168,0.0
-5.186714341334388,0.0
-5.181124747926607,0.0
-5.175535154518828,0.0
-5.169945561111048,0.0
-5.164355967703267,0.0
-5.158766374295487,0.0
-5.153176780887708,0.0
-5.147587187479927,0.0
-5.141997594072147,0.0
-5.1364080006643675,2.7755575615628914e-17
-5.130818407256587,2.7755575615628914e-17
-5.125228813848807,0.0
-5.119639220441027,0.0
-5.114049627033247,0.0
-5.108460033625467,0.0
-5.1028704402176865,0.0
-5.097280846809907,0.0
-5.091691253402127,0.0
-5.0861016599943465,0.0
-5.080512066586566,0.0
-5.074922473178787,0.0
-5.069332879771006,2.7755575615628914e-17
-5.063743286363226,0.0
-5.058153692955447,0.0
-5.052564099547666,0.0
-5.046974506139886,0.0
-5.041384912732106,0.0
-5.035795319324326,0.0
-5.030205725916546,1.3877787807814457e-17
-5.024616132508766,1.3877787807814457e-17
-5.019026539100986,0.0
-5.013436945693206,2.7755575615628914e-17
-5.007847352285426,5.551115123125783e-17
-5.002257758877645,0.0
-4.996668165469866,1.3877787807814457e-17
-4.991078572062086,0.0
-4.985488978654305,1.3877787807814457e-17
-4.979899385246525,4.163336342344337e-17
-4.9743097918387456,4.163336342344337e-17
-4.968720198430965,6.938893903907228e-17
-4.963130605023185,4.163336342344337e-17
-4.9575410116154055,8.326672684688674e-17
-4.951951418207625,1.1102230246251565e-16
-4.946361824799845,1.249000902703301e-16
-4.940772231392065,1.6653345369377348e-16
-4.935182637984285,2.3592239273284576e-16
-4.929593044576505,2.7755575615628914e-16
-4.9240034511687245,4.440892098500626e-16
-4.918413857760945,5.689893001203927e-16
-4.912824264353165,8.049116928532385e-16
-4.9072346709453845,1.0824674490095276e-15
-4.901645077537604,1.3877787807814457e-15
-4.896055484129825,1.915134717478395e-15
-4.890465890722044,2.609024107869118e-15
-4.884876297314264,3.4833247397614286e-15
-4.879286703906485,4.760081218080359e-15
-4.873697110498704,6.356026815979021e-15
-4.868107517090924,8.618106228652778e-15
-4.862517923683144,1.1532441668293814e-14
-4.856928330275364,1.544597783009749e-14
-4.851338736867584,2.0650148258027912e-14
-4.845749143459804,2.7575164374127326e-14
-4.840159550052024,3.6762259902900496e-14
-4.834569956644244,4.891920202254596e-14
-4.828980363236464,6.497580251618729e-14
-4.823390769828683,8.608391777187308e-14
-4.817801176420904,1.139435767960606e-13
-4.812211583013124,1.5055318103307513e-13
-4.806621989605343,1.9854257127249753e-13
-4.801032396197564,2.6133262220895404e-13
-4.7954428027897835,3.4341279819827264e-13
-4.789853209382003,4.50417481090426e-13
-4.784263615974223,5.897574095747871e-13
-4.7786740225664435,7.708556015728618e-13
-4.773084429158663,1.0057579769018332e-12
-4.767494835750883,1.3097786744076245e-12
-4.7619052423431025,1.702790686231026e-12
-4.756315648935323,2.209760152638296e-12
-4.750726055527543,2.8625504744361763e-12
-4.7451364621197625,3.70162234197835e-12
-4.739546868711983,4.77807376997319e-12
-4.733957275304203,6.156644638544151e-12
-4.728367681896422,7.918804501017007e-12
-4.722778088488642,1.0167172659336643e-11
-4.717188495080863,1.3030840295691348e-11
-4.711598901673082,1.6671240776755525e-11
-4.706009308265302,2.1290622043146357e-11
-4.700419714857523,2.7141740244207568e-11
-4.694830121449742,3.453925340179964e-11
-4.689240528041962,4.3874730237813964e-11
-4.683650934634182,5.563431659805218e-11
-4.678061341226402,7.042021826775269e-11
-4.672471747818622,8.897723530187918e-11
-4.666882154410842,1.1222425072565656e-10
-4.661292561003062,1.412931577293719e-10
-4.655702967595282,1.7757507964066832e-10
-4.650113374187502,2.2277655414848496e-10
-4.644523780779721,2.7898661852931994e-10
-4.638934187371942,3.4875780735577067e-10
-4.6333445939641615,4.352021243381188e-10
-4.627755000556381,5.421064569466338e-10
-4.622165407148602,6.740695918105999e-10
-4.6165758137408215,8.366645917745608e-10
-4.610986220333041,1.0366319122545598e-9
-4.605396626925261,1.282107121858278e-9
-4.599807033517481,1.582889423701328e-9
-4.594217440109701,1.9507578469246667e-9
-4.588627846701921,2.3998422762905314e-9
-4.583038253294141,2.9470571608070095e-9
-4.577448659886361,3.6126089689170193e-9
-4.571859066478581,4.420586389997094e-9
-4.5662694730708004,5.399646708925676e-9
-4.560679879663021,6.583810711890958e-9
-4.555090286255241,8.013382297999971e-9
-4.54950069284746,9.736007937355406e-9
-4.54391109943968,1.1807895661242185e-8
-4.538321506031901,1.4295212860671036e-8
-4.53273191262412,1.7275685021411746e-8
-4.52714231921634,2.084041959143912e-8
-4.521552725808561,2.5095980668576878e-8
-4.51596313240078,3.016674235412076e-8
-4.510373538993,3.619755088030141e-8
-4.50478394558522,4.3356727028043274e-8
-4.49919435217744,5.1839442488654797e-8
-4.49360475876966,6.187150563413679e-8
-4.48801516536188,7.37135922163068e-8
-4.4824255719541,8.766596060194587e-8
-4.47683597854632,1.040736881396942e-7
-4.47124638513854,1.23332468203452e-7
-4.465656791730759,1.458950068811138e-7
-4.46006719832298,1.7227805620967374e-7
-4.4544776049151995,2.0307011987935608e-7
-4.448888011507419,2.3893986554612834e-7
-4.44329841809964,2.806452733400411e-7
-4.4377088246918595,3.290435460073793e-7
-4.432119231284079,3.851017997824613e-7
-4.426529637876299,4.4990855027626786e-7
-4.420940044468519,5.24685994783558e-7
-4.415350451060739,6.108030872961634e-7
-4.409760857652959,7.097893871266248e-7
-4.404171264245179,8.233496503612381e-7
-4.398581670837399,9.533791182000928e-7
-4.392992077429619,1.1019794381103565e-6
-4.387402484021838,1.2714751376485811e-6
-4.381812890614059,1.4644305465910668e-6
-4.376223297206279,1.683667045358772e-6
-4.370633703798498,1.9322804903076918e-6
-4.365044110390719,2.213658644154015e-6
-4.359454516982939,2.5314984124433226e-6
-4.353864923575158,2.8898226600640453e-6
-4.348275330167378,3.292996355645783e-6
-4.342685736759599,3.7457417619013444e-6
-4.337096143351818,4.253152364637469e-6
-4.331506549944038,4.8207052057089306e-6
-4.325916956536258,5.454271260307841e-6
-4.320327363128478,6.160123476123269e-6
-4.314737769720698,6.9449420712006105e-6
-4.309148176312918,7.815816670087017e-6
-4.303558582905138,8.780244846781637e-6
-4.297968989497358,9.84612663149087e-6
-4.2923793960895775,1.102175453976395e-5
-4.286789802681797,1.231579868428423e-5
-4.281200209274018,1.373728654092965e-5
-4.2756106158662375,1.5295576960228097e-5
-4.270021022458457,1.7000328043317858e-5
-4.264431429050678,1.886145853616239e-5
-4.258841835642897,2.0889102443036323e-5
-4.253252242235117,2.3093556615130795e-5
-4.247662648827337,2.5485221135823632e-5
-4.242073055419557,2.8074532397892593e-5
-4.236483462011777,3.087188885542158e-5
-4.230893868603997,3.388756952376476e-5
-4.225304275196217,3.713164540614794e-5
-4.219714681788437,4.061388413539868e-5
