Values,Density
-6.499711054997163,3.475995364321527e-7
-6.494017297093887,3.506036873324181e-7
-6.488323539190611,3.574242759263324e-7
-6.482629781287335,3.681107305364417e-7
-6.4769360233840585,3.8274297808893465e-7
-6.471242265480782,4.014317258049793e-7
-6.465548507577506,4.24318876396379e-7
-6.45985474967423,4.515780743785669e-7
-6.454160991770954,4.834153834176735e-7
-6.448467233867678,5.200700913532419e-7
-6.442773475964402,5.618156424247456e-7
-6.437079718061126,6.08960692788374e-7
-6.43138596015785,6.618502888244837e-7
-6.425692202254574,7.208671640446251e-7
-6.419998444351298,7.864331519613632e-7
-6.4143046864480215,8.590107117845136e-7
-6.4086109285447455,9.391045629469907e-7
-6.402917170641469,1.027263424185909e-6
-6.397223412738193,1.124081852599268e-6
-6.391529654834917,1.2302021770993488e-6
-6.385835896931641,1.3463165214055994e-6
-6.380142139028365,1.4731689086944222e-6
-6.374448381125088,1.6115574423825052e-6
-6.368754623221812,1.7623365546337588e-6
-6.363060865318536,1.9264193136803165e-6
-6.35736710741526,2.1047797819084835e-6
-6.351673349511984,2.2984554130522916e-6
-6.345979591608708,2.508549479668387e-6
-6.3402858337054315,2.736233516986708e-6
-6.334592075802155,2.982749771757165e-6
-6.328898317898879,3.2494136424365827e-6
-6.323204559995603,3.537616095089513e-6
-6.317510802092327,3.84882604084931e-6
-6.311817044189051,4.184592657276512e-6
-6.306123286285775,4.54654763649108e-6
-6.300429528382499,4.936407341307042e-6
-6.294735770479223,5.355974850641473e-6
-6.289042012575947,5.80714187223795e-6
-6.283348254672671,6.291890502900868e-6
-6.277654496769395,6.812294812296241e-6
-6.2719607388661185,7.370522229002696e-6
-6.266266980962842,7.968834702944474e-6
-6.260573223059566,8.609589621150215e-6
-6.25487946515629,9.295240450150552e-6
-6.249185707253014,1.0028337080286026e-5
-6.243491949349738,1.0811525845005887e-5
-6.237798191446462,1.1647549187969453e-5
-6.232104433543186,1.2539244953016851e-5
-6.22641067563991,1.3489545266854447e-5
-6.220716917736634,1.4501474991110777e-5
-6.215023159833358,1.5578149714437495e-5
-6.2093294019300815,1.6722773259671836e-5
-6.2036356440268055,1.793863468019241e-5
-6.197941886123529,1.9229104720590653e-5
-6.192248128220253,2.0597631717335363e-5
-6.186554370316977,2.2047736918006516e-5
-6.180860612413701,2.3583009195849575e-5
-6.175166854510425,2.5207099142289177e-5
-6.169473096607149,2.6923712517452902e-5
-6.163779338703873,2.873660304512915e-5
-6.158085580800597,3.0649564537084395e-5
-6.152391822897321,3.2666422336874446e-5
-6.146698064994045,3.479102407595233e-5
-6.1410043070907685,3.702722973489454e-5
-6.135310549187492,3.937890101148728e-5
-6.129616791284216,4.184988999439074e-5
-6.123923033380939,4.444402715037335e-5
-6.118229275477663,4.716510863361778e-5
-6.112535517574387,5.0016882930818685e-5
-6.106841759671111,5.300303686096505e-5
-6.101148001767835,5.612718095096211e-5
-6.095454243864559,5.939283421512245e-5
-6.089760485961283,6.28034083706222e-5
-6.084066728058007,6.636219152387351e-5
-6.078372970154731,7.007233137147281e-5
-6.072679212251455,7.393681796018584e-5
-6.0669854543481785,7.795846605862175e-5
-6.061291696444902,8.21398971957675e-5
-6.055597938541626,8.648352142843693e-5
-6.04990418063835,9.099151890258964e-5
-6.044210422735074,9.566582127903955e-5
-6.038516664831798,0.00010050809309872233
-6.032822906928522,0.0001055197131665242
-6.027129149025246,0.00011070175603644997
-6.02143539112197,0.00011605497368514378
-6.015741633218694,0.0001215797774640412
-6.010047875315418,0.0001272762204225092
-6.0043541174121415,0.00013314398010006237
-5.9986603595088654,0.00013918234188224285
-5.992966601605589,0.00014539018302327233
-5.987272843702313,0.00015176595743417176
-5.981579085799037,0.0001583076813391794
-5.975885327895761,0.00016501291990187253
-5.970191569992485,0.00017187877492214412
-5.964497812089209,0.00017890187370451713
-5.958804054185933,0.00018607835919606797
-5.953110296282657,0.00019340388149047955
-5.947416538379381,0.00020087359079041384
-5.941722780476105,0.0002084821319188676
-5.9360290225728285,0.00021622364046347542
-5.930335264669552,0.0002240917406338902
-5.924641506766276,0.00023207954490682414
-5.918947748863,0.00024017965552728532
-5.913253990959724,0.0002483841679244772
-5.907560233056448,0.0002566846760991212
-5.901866475153172,0.00026507228002437683
-5.896172717249896,0.00027353759509882863
-5.89047895934662,0.00028207076367706835
-5.884785201443344,0.0002906614686969053
-5.879091443540067,0.00029929894940933927
-5.873397685636791,0.00030797201920865214
-5.867703927733515,0.00031666908554905254
-5.8620101698302385,0.00032537817192199864
-5.856316411926962,0.0003340869418585815
-5.850622654023686,0.000342782724909646
-5.84492889612041,0.0003514525445436449
-5.839235138217134,0.00036008314789391996
-5.833541380313858,0.0003686610372710536
-5.827847622410582,0.00037717250334997135
-5.822153864507306,0.00038560365992801326
-5.81646010660403,0.00039394048013879565
-5.810766348700754,0.0004021688339991558
-5.805072590797478,0.00041027452715508214
-5.7993788328942015,0.00041824334068425034
-5.793685074990925,0.0004260610718038564
-5.787991317087649,0.0004337135753257962
-5.782297559184373,0.0004411868056925783
-5.776603801281097,0.00044846685942303427
-5.770910043377821,0.000455540017791127
-5.765216285474545,0.00046239278955562124
-5.759522527571269,0.0004690119535575993
-5.753828769667993,0.0004753846009973861
-5.748135011764717,0.00048149817720406773
-5.742441253861441,0.00048734052270885814
-5.736747495958165,0.0004928999134351311
-5.7310537380548885,0.0004981650998190784
-5.725359980151612,0.0005031253446799583
-5.719666222248336,0.0005077704596603561
-5.71397246434506,0.0005120908400649132
-5.708278706441784,0.0005160774979298954
-5.702584948538508,0.000519722093164858
-5.696891190635232,0.0005230169626155648
-5.691197432731956,0.0005259551469059959
-5.68550367482868,0.0005285304149284312
-5.679809916925404,0.0005307372858602694
-5.674116159022128,0.0005325710485996268
-5.6684224011188515,0.0005340277785226832
-5.6627286432155755,0.0005351043514789239
-5.657034885312299,0.0005357984549558409
-5.651341127409023,0.0005361085963554862
-5.645647369505747,0.000536034108342763
-5.639953611602471,0.0005355751512382545
-5.634259853699195,0.00053473271244283
-5.628566095795918,0.0005335086028984762
-5.622872337892642,0.0005319054506013332
-5.617178579989366,0.000529926691201027
-5.61148482208609,0.0005275765557319831
-5.605791064182814,0.0005248600555395819
-5.600097306279538,0.0005217829644744432
-5.5944035483762615,0.0005183517984452546
-5.588709790472985,0.000514573792430334
-5.583016032569709,0.0005104568750613769
-5.577322274666433,0.0005060096409054277
-5.571628516763157,0.0005012413205794236
-5.565934758859881,0.0004961617488431977
-5.560241000956605,0.0004907813308254114
-5.554547243053329,0.00048511100654490685
-5.548853485150053,0.00047916221389505964
-5.543159727246777,0.0004729468502684131
-5.537465969343501,0.00046647723299966803
-5.531772211440225,0.000459766058811914
-5.5260784535369485,0.00045282636245100316
-5.520384695633672,0.0004456714746972762
-5.514690937730396,0.00043831497994231694
-5.50899717982712,0.0004307706735183145
-5.503303421923844,0.000423052518966488
-5.497609664020568,0.000415174605427171
-5.491915906117292,0.00040715110533241783
-5.486222148214016,0.0003989962325747706
-5.48052839031074,0.00039072420132271746
-5.474834632407464,0.0003823491856448716
-5.469140874504188,0.0003738852800995937
-5.4634471166009115,0.0003653464614367108
-5.4577533586976354,0.00035674655155222557
-5.452059600794359,0.0003480991818235607
-5.446365842891083,0.0003394177589477951
-5.440672084987807,0.0003307154323911668
-5.434978327084531,0.00032200506355006125
-5.429284569181255,0.00031329919671137935
-5.423590811277979,0.0003046100318895503
-5.417897053374703,0.0002959493996062615
-5.412203295471427,0.00028732873766733336
-5.406509537568151,0.0002787590699800391
-5.400815779664875,0.0002702509874421763
-5.3951220217615985,0.00026181463092455476
-5.389428263858322,0.00025345967635557326
-5.383734505955045,0.00024519532190748344
-5.378040748051769,0.0002370302772732244
-5.372346990148493,0.0002289727550119497
-5.366653232245217,0.0002210304639326463
-5.360959474341941,0.00021321060447662687
-5.355265716438665,0.00020551986604928907
-5.349571958535389,0.0001979644262458738
-5.343878200632113,0.0001905499519070583
-5.338184442728837,0.00018328160193405163
-5.332490684825561,0.00017616403178653123
-5.326796926922285,0.0001692013995814659
-5.3211031690190085,0.0001623973737063522
-5.315409411115732,0.00015575514185519473
-5.309715653212456,0.000149277421394034
-5.30402189530918,0.0001429664709578088
-5.298328137405904,0.0001368241031796183
-5.292634379502628,0.00013085169845277606
-5.286940621599352,0.00012505021962207208
-5.281246863696076,0.00011942022750388581
-5.2755531057928,0.00011396189713409888
-5.269859347889524,0.00010867503464118827
-5.264165589986248,0.00010355909464775798
-5.2584718320829715,9.861319810140073e-5
-5.2527780741796954,9.38361504414717e-5
-5.247084316276419,8.922646000853601e-5
-5.241390558373143,8.478235660801942e-5
-5.235696800469867,8.050181014328944e-5
-5.230003042566591,7.638254923511556e-5
-5.224309284663315,7.242207975187431e-5
-5.218615526760039,6.861770317589944e-5
-5.212921768856763,6.496653473803127e-5
-5.207228010953487,6.146552125620847e-5
-5.201534253050211,5.811145861907285e-5
-5.195840495146935,5.490100886011706e-5
-5.1901467372436585,5.1830716773233754e-5
-5.184452979340382,4.889702602445256e-5
-5.178759221437106,4.609629472163146e-5
-5.17306546353383,4.342481040549295e-5
-5.167371705630554,4.08788044342287e-5
-5.161677947727278,3.845446573400024e-5
-5.155984189824002,3.6147953896760454e-5
-5.150290431920726,3.395541160765986e-5
-5.14459667401745,3.187297638995723e-5
-5.138902916114174,2.989679166050946e-5
-5.133209158210897,2.8023017089658098e-5
-5.127515400307621,2.624783826705307e-5
-5.121821642404345,2.4567475674433514e-5
-5.1161278845010685,2.2978192972339384e-5
-5.110434126597792,2.147630460973271e-5
-5.104740368694516,2.0058182767436483e-5
-5.09904661079124,1.8720263650247315e-5
-5.093352852887964,1.745905314441687e-5
-5.087659094984688,1.6271131857585608e-5
-5.081965337081412,1.5153159563033314e-5
-5.076271579178136,1.4101879068362244e-5
-5.07057782127486,1.3114119533405577e-5
-5.064884063371584,1.218679925942684e-5
-5.059190305468308,1.1316927976762203e-5
-5.0534965475650315,1.050160865503219e-5
-5.047802789661755,9.738038862915077e-6
-5.042109031758479,9.023511704111305e-6
-5.036415273855203,8.355416355634686e-6
-5.030721515951927,7.731238235826002e-6
-5.025027758048651,7.148558828110312e-6
-5.019334000145375,6.60505518696201e-6
-5.013640242242099,6.098499152256808e-6
-5.007946484338823,5.6267562966489e-6
-5.002252726435547,5.187784631122041e-6
-4.996558968532271,4.7796330933575805e-6
-4.990865210628995,4.400439840551457e-6
-4.9851714527257185,4.048430370768956e-6
-4.979477694822442,3.721915493289183e-6
-4.973783936919166,3.4192891686926283e-6
-4.96809017901589,3.1390262388172017e-6
-4.962396421112614,2.879680063813759e-6
-4.956702663209338,2.6398800857009574e-6
-4.951008905306062,2.4183293327313497e-6
-4.945315147402786,2.2138018821618415e-6
-4.93962138949951,2.02514029435958e-6
-4.933927631596234,1.8512530318337463e-6
-4.928233873692958,1.691111876592254e-6
-4.9225401157896815,1.5437493558337952e-6
-4.9168463578864054,1.4082561874395865e-6
-4.911152599983129,1.2837787546049993e-6
-4.905458842079853,1.1695166176779737e-6
-4.899765084176577,1.0647200721183078e-6
-4.894071326273301,9.686877582191448e-7
-4.888377568370025,8.807643302861067e-7
-4.882683810466748,8.003381894616975e-7
-4.876990052563472,7.268392860559567e-7
-4.871296294660196,6.597369949102715e-7
-4.86560253675692,5.985380679058606e-7
-4.859908778853644,5.42784666511531e-7
-4.854215020950368,4.920524769649881e-7
-4.8485212630470915,4.459489107572212e-7
-4.842827505143815,4.041113913152983e-7
-4.837133747240539,3.6620572942819285e-7
-4.831439989337263,3.319245878985466e-7
-4.825746231433987,3.0098603683720304e-7
-4.820052473530711,2.7313219957275647e-7
-4.814358715627435,2.481279913341128e-7
-4.808664957724159,2.2575994890194906e-7
-4.802971199820883,2.0583515417810228e-7
-4.797277441917607,1.8818024959121882e-7
-4.791583684014331,1.7264054786442218e-7
-4.785889926111055,1.5907923514579814e-7
-4.7801961682077785,1.4737666791803106e-7
-4.774502410304502,1.3742976577579835e-7
-4.768808652401226,1.291514986345721e-7
-4.76311489449795,1.224704710631186e-7
-4.757421136594674,1.1733060346907909e-7
-4.751727378691398,1.1369091238583318e-7
-4.746033620788122,1.115253907488234e-7
-4.740339862884846,1.1082299000014784e-7
-4.73464610498157,1.1158770593655554e-7
-4.728952347078294,1.1383877141640797e-7
-4.723258589175018,1.1761095738277438e-7
-4.7175648312717415,1.2295498587333586e-7
-4.7118710733684654,1.2993805816735593e-7
-4.706177315465189,1.3864450200407052e-7
-4.700483557561913,1.491765409464274e-7
-4.694789799658637,1.616551914829234e-7
-4.689096041755361,1.762212918018924e-7
-4.683402283852085,1.930366671509809e-7
-4.677708525948809,2.122854383321271e-7
-4.672014768045533,2.3417547763415758e-7
-4.666321010142257,2.5894001974557934e-7
-4.660627252238981,2.868394331362323e-7
-4.654933494335705,3.181631592075185e-7
-4.6492397364324285,3.532318266080692e-7
-4.643545978529152,3.92399547091693e-7
-4.637852220625875,4.3605640188959516e-7
-4.632158462722599,4.846311256190283e-7
-4.626464704819323,5.385939959509645e-7
-4.620770946916047,5.984599377450994e-7
-4.615077189012771,6.647918490490512e-7
-4.609383431109495,7.382041588427368e-7
-4.603689673206219,8.193666233766161e-7
-4.597995915302943,9.090083702492646e-7
-4.592302157399667,1.0079221993419818e-6
-4.586608399496391,1.116969146265634e-6
-4.580914641593115,1.2370833189292996e-6
-4.5752208836898385,1.3692770130385723e-6
-4.569527125786562,1.5146461133722089e-6
-4.563833367883286,1.6743757889972621e-6
-4.55813960998001,1.8497464862737845e-6
-4.552445852076734,2.0421402261022736e-6
-4.546752094173458,2.2530472100074084e-6
-4.541058336270182,2.484072736494425e-6
-4.535364578366906,2.7369444327990378e-6
-4.52967082046363,3.0135198005598607e-6
-4.523977062560354,3.3157940769537597e-6
-4.518283304657078,3.6459084084977667e-6
-4.5125895467538015,4.00615833482873e-6
-4.506895788850525,4.3990025773432695e-6
-4.501202030947249,4.827072125301174e-6
-4.495508273043973,5.29317961143333e-6
-4.489814515140697,5.800328964800094e-6
-4.484120757237421,6.351725328444802e-6
-4.478426999334145,6.950785225501299e-6
-4.472733241430869,7.601146955187044e-6
-4.467039483527593,8.306681198090582e-6
-4.461345725624317,9.071501806519333e-6
-4.455651967721041,9.899976752228423e-6
-4.449958209817765,1.079673920294233e-5
-4.4442644519144885,1.1766698693037314e-5
-4.438570694011212,1.2815052352829759e-5
-4.432876936107936,1.3947296156072153e-5
-4.42718317820466,1.5169236143038056e-5
-4.421489420301384,1.64869995718242e-5
-4.415795662398108,1.7907045948103995e-5
-4.410101904494832,1.9436177879923744e-5
-4.404408146591556,2.108155169956022e-5
-4.39871438868828,2.2850687793042612e-5
-4.393020630785004,2.4751480572425544e-5
-4.387326872881727,2.6792208024279535e-5
-4.381633114978451,2.8981540763580588e-5
-4.375939357075175,3.13285505200607e-5
-4.3702455991718985,3.3842717980257786e-5
-4.364551841268622,3.653393990730308e-5
-4.358858083365346,3.941253545618889e-5
-4.35316432546207,4.2489251602245703e-5
-4.347470567558794,4.5775267596810665e-5
-4.341776809655518,4.928219836460024e-5
-4.336083051752242,5.30220967541635e-5
-4.330389293848966,5.700745455398948e-5
-4.32469553594569,6.1251202185586e-5
-4.319001778042414,6.576670698540954e-5
-4.313308020139138,7.056776998870876e-5
-4.3076142622358615,7.566862112853151e-5
-4.301920504332585,8.108391276753779e-5
-4.296226746429309,8.682871147928234e-5
-4.290532988526033,9.291848800252814e-5
-4.284839230622757,9.936910529297419e-5
-4.279145472719481,0.0001061968046033833
-4.273451714816205,0.00011341818952685656
-4.267757956912929,0.00012105020794522456
-4.262064199009653,0.00012911013182949696
-4.256370441106377,0.00013761553484860356
-4.250676683203101,0.00014658426774863398
-4.244982925299825,0.00015603443147539642
-4.2392891673965485,0.00016598434802089085
-4.233595409493272,0.0001764525289855573
-4.227901651589996,0.00018745764185869318
-4.22220789368672,0.0001990184740295678
-4.216514135783444,0.00021115389455560185
-4.210820377880168,0.00022388281372516874
-4.205126619976892,0.0002372241404653072
-4.199432862073616,0.0002511967376592865
-4.19373910417034,0.0002658193754513233
-4.188045346267064,0.0002811106826302659
-4.182351588363788,0.00029708909619934054
-4.1766578304605115,0.0003137728092510103
-4.1709640725572354,0.0003311797172836292
-4.165270314653959,0.0003493273631080089
-4.159576556750683,0.0003682328805092068
-4.153882798847407,0.0003879129368398668
-4.148189040944131,0.0004083836747387319
-4.142495283040854,0.0004296606531779927
-4.136801525137578,0.0004517587880590486
-4.131107767234302,0.00047469229258588486
-4.125414009331026,0.000498474617659242
-4.11972025142775,0.0005231183925432717
-4.114026493524474,0.0005486353660681294
-4.108332735621198,0.0005750363486389173
-4.1026389777179215,0.0006023311553308673
-4.096945219814645,0.0006305285503553949
-4.091251461911369,0.0006596361931874017
-4.085557704008093,0.0006896605866488596
-4.079863946104817,0.0007206070272433099
-4.074170188201541,0.0007524795580401492
-4.068476430298265,0.0007852809244025503
-4.062782672394989,0.0008190125328550214
-4.057088914491713,0.0008536744133767725
-4.051395156588437,0.0008892651854057361
-4.045701398685161,0.0009257820278283924
-4.040007640781885,0.0009632206532195729
-4.0343138828786085,0.0010015752865881154
-4.028620124975332,0.001040838648868652
-4.022926367072056,0.0010810019453856984
-4.01723260916878,0.0011220548595008775
-4.011538851265504,0.0011639855516341231
-4.005845093362228,0.0012067806638312271
-4.000151335458952,0.0012504253300296697
-3.994457577555676,0.001294903192149692
-3.9887638196524,0.0013401964221171105
-3.9830700617491237,0.0013862857498964237
-3.9773763038458476,0.0014331504975892452
-3.9716825459425715,0.001480768619624366
-3.9659887880392954,0.0015291167490398584
-3.9602950301360194,0.0015781702498277698
-3.954601272232743,0.0016279032752850552
-3.9489075143294667,0.0016782888322846544
-3.9432137564261907,0.0017292988513511395
-3.9375199985229146,0.0017809042623984118
-3.9318262406196385,0.0018330750759560019
-3.9261324827163624,0.001885780469684609
-3.9204387248130863,0.001938988879952289
-3.91474496690981,0.0019926680982172654
-3.909051209006534,0.002046785371936498
-3.903357451103258,0.002101307509696242
-3.897663693199982,0.0021562009902350854
-3.891969935296706,0.0022114320750105006
-3.88627617739343,0.0022669669239382163
-3.8805824194901537,0.0023227717139157507
-3.8748886615868776,0.0023788127597247598
-3.8691949036836015,0.0024350566368906354
-3.8635011457803254,0.0024914703060689367
-3.8578073878770494,0.0025480212385114234
-3.8521136299737733,0.0026046775421624552
-3.846419872070497,0.0026614080879254175
-3.840726114167221,0.002718182635637216
-3.835032356263945,0.002774971959286209
-3.8293385983606685,0.0028317479710095843
-3.8236448404573924,0.002888483843408852
-3.8179510825541163,0.0029451541297266844
-3.81225732465084,0.0030017348814354618
-3.806563566747564,0.003058203762796724
-3.800869808844288,0.003114540161961967
-3.795176050941012,0.003170725298197334
-3.789482293037736,0.0032267423248302403
-3.78378853513446,0.003282576427530777
-3.7780947772311837,0.0033382149175599334
-3.7724010193279076,0.0033936473196348182
-3.7667072614246315,0.00344886545408072
-3.7610135035213554,0.003503863512962231
-3.7553197456180794,0.0035586381299071886
-3.7496259877148033,0.0036131884433593837
-3.743932229811527,0.0036675161530207202
-3.738238471908251,0.0037216255692659704
-3.732544714004975,0.003775523655337492
-3.726850956101699,0.0038292200621520764
-3.721157198198423,0.0038827271555752878
-3.7154634402951467,0.00393606003604172
