Values,Density
-7.1835879165255365,1.2001583614418276e-7
-7.176580753419121,1.2128191811955347e-7
-7.169573590312707,1.2399383886307902e-7
-7.162566427206292,1.2817392036623687e-7
-7.155559264099876,1.3385714055236253e-7
-7.148552100993462,1.4109127946526634e-7
-7.141544937887047,1.4993712633970535e-7
-7.134537774780632,1.604687455414311e-7
-7.127530611674216,1.7277380146007992e-7
-7.120523448567802,1.8695394156387213e-7
-7.113516285461387,2.03125236089563e-7
-7.1065091223549715,2.2141867438152385e-7
-7.099501959248557,2.4198071540970645e-7
-7.092494796142142,2.649738928689471e-7
-7.085487633035727,2.9057747134852985e-7
-7.078480469929312,3.189881538079309e-7
-7.071473306822897,3.504208371807316e-7
-7.064466143716482,3.851094146495315e-7
-7.0574589806100665,4.233076218718157e-7
-7.050451817503652,4.652899249502074e-7
-7.043444654397237,5.113524465805153e-7
-7.036437491290822,5.61813927490995e-7
-7.029430328184407,6.170167198837895e-7
-7.022423165077992,6.77327808076833e-7
-7.015416001971577,7.431398526963617e-7
-7.008408838865162,8.148722533546371e-7
-7.001401675758747,8.929722246087124e-7
-6.994394512652332,9.779158796768828e-7
-6.987387349545917,1.0702093156400583e-6
-6.980380186439502,1.1703896939940783e-6
-6.973373023333087,1.2790263087120168e-6
-6.966365860226672,1.3967216351412626e-6
-6.9593586971202575,1.5241123512619009e-6
-6.952351534013842,1.6618703229295253e-6
-6.945344370907427,1.8107035439983259e-6
-6.938337207801013,1.9713570219496816e-6
-6.931330044694597,2.1446135991731383e-6
-6.924322881588182,2.331294699534905e-6
-6.917315718481768,2.5322609893993313e-6
-6.9103085553753525,2.7484129417169618e-6
-6.903301392268937,2.980691292301047e-6
-6.896294229162522,3.2300773757519725e-6
-6.889287066056108,3.497593329659151e-6
-6.882279902949692,3.784302154189855e-6
-6.875272739843277,4.091307615116009e-6
-6.868265576736863,4.419753977627375e-6
-6.8612584136304475,4.770825558487752e-6
-6.854251250524032,5.145746084362496e-6
-6.847244087417618,5.54577784359989e-6
-6.840236924311203,5.972220620469515e-6
-6.833229761204787,6.426410399363496e-6
-6.826222598098372,6.909717828569193e-6
-6.819215434991958,7.423546433229502e-6
-6.812208271885543,7.96933056694928e-6
-6.805201108779127,8.548533094319272e-6
-6.798193945672713,9.162642795838534e-6
-6.791186782566298,9.813171488133165e-6
-6.7841796194598825,1.0501650854492697e-5
-6.777172456353468,1.1229628981394065e-5
-6.770165293247053,1.1998666597615257e-5
-6.763158130140638,1.2810333015772328e-5
-6.756150967034223,1.366620177620367e-5
-6.749143803927808,1.4567845995594377e-5
-6.742136640821393,1.551683342566456e-5
-6.7351294777149775,1.6514721227224994e-5
-6.728122314608563,1.7563050469617805e-5
-6.721115151502148,1.866334036565269e-5
-6.714107988395733,1.981708225572891e-5
-6.707100825289318,2.1025733357534458e-5
-6.700093662182903,2.2290710299296816e-5
-6.693086499076488,2.3613382457368963e-5
-6.686079335970073,2.4995065122712765e-5
-6.679072172863658,2.6437012521108856e-5
-6.672065009757243,2.7940410717704808e-5
-6.665057846650828,2.9506370435487947e-5
-6.658050683544413,3.113591982312159e-5
-6.651043520437998,3.282999720809047e-5
-6.644036357331583,3.458944387390098e-5
-6.6370291942251685,3.641499690273096e-5
-6.630022031118753,3.83072821268269e-5
-6.623014868012338,4.026680723415686e-5
-6.616007704905924,4.2293955075001395e-5
-6.609000541799508,4.438897721900084e-5
-6.601993378693093,4.655198781206189e-5
-6.594986215586678,4.878295778519906e-5
-6.5879790524802635,5.1081709466403724e-5
-6.580971889373848,5.3447911649826246e-5
-6.573964726267433,5.588107517390164e-5
-6.566957563161019,5.838054906197191e-5
-6.559950400054603,6.0945517277834465e-5
-6.552943236948188,6.357499614773358e-5
-6.545936073841774,6.626783249964654e-5
-6.5389289107353585,6.902270256844978e-5
-6.531921747628943,7.183811171400205e-5
-6.524914584522529,7.471239499668315e-5
-6.517907421416114,7.764371865260754e-5
-6.510900258309698,8.063008250609955e-5
-6.503893095203283,8.366932335535288e-5
-6.496885932096869,8.675911936173604e-5
-6.489878768990454,8.98969954687594e-5
-6.482871605884038,9.308032987360667e-5
-6.475864442777624,9.630636156612534e-5
-6.468857279671209,9.957219894788836e-5
-6.4618501165647935,0.0001028748295346443
-6.454842953458379,0.00010621113074291925
-6.447835790351964,0.00010957788175184561
-6.440828627245549,0.00011297177642685327
-6.433821464139133,0.00011638943728400084
-6.426814301032719,0.00011982743046652709
-6.419807137926304,0.00012328228169923724
-6.4127999748198885,0.00012675049317710583
-6.405792811713474,0.00013022856133935784
-6.398785648607059,0.00013371299547110965
-6.391778485500644,0.00013720033706913072
-6.384771322394229,0.00014068717989916307
-6.377764159287814,0.0001441701906680073
-6.370756996181399,0.00014764613022366906
-6.3637498330749835,0.0001511118751927618
-6.356742669968569,0.0001545644399575559
-6.349735506862154,0.00015800099886841435
-6.342728343755739,0.0001614189085832568
-6.335721180649324,0.00016481573041957293
-6.328714017542909,0.00016818925260076324
-6.321706854436494,0.0001715375122747589
-6.3146996913300795,0.00017485881717917238
-6.307692528223664,0.0001781517668242973
-6.300685365117249,0.0001814152730648397
-6.293678202010835,0.00018464857992754515
-6.286671038904419,0.00018785128256368312
-6.279663875798004,0.0001910233451940654
-6.272656712691589,0.00019416511791554305
-6.2656495495851745,0.0001972773522402791
-6.258642386478759,0.00020036121524080958
-6.251635223372344,0.00020341830217774997
-6.24462806026593,0.00020645064749145558
-6.237620897159514,0.00020946073404305363
-6.230613734053099,0.0002124515004965022
-6.223606570946685,0.00021542634674073466
-6.2165994078402695,0.00021838913725658092
-6.209592244733854,0.00022134420234246527
-6.202585081627439,0.0002242963371211411
-6.195577918521025,0.00022725079825953244
-6.188570755414609,0.00023021329834302772
-6.181563592308194,0.0002331899978574537
-6.17455642920178,0.0002361874947417119
-6.167549266095365,0.0002392128114869223
-6.160542102988949,0.00024227337976958643
-6.153534939882535,0.0002453770226184702
-6.14652777677612,0.0002485319341284254
-6.1395206136697045,0.0002517466567464701
-6.13251345056329,0.0002550300561698711
-6.125506287456875,0.00025839129390797235
-6.11849912435046,0.00026183979757443644
-6.111491961244044,0.0002653852289877204
-6.10448479813763,0.0002690374501738181
-6.097477635031215,0.0002728064873751489
-6.0904704719247995,0.0002767024931850854
-6.083463308818385,0.00028073570693787223
-6.07645614571197,0.0002849164134969078
-6.069448982605555,0.000289254900596397
-6.06244181949914,0.0002937614149004417
-6.055434656392725,0.0002984461169565694
-6.04842749328631,0.00030331903522831747
-6.0414203301798945,0.0003083900194016387
-6.03441316707348,0.0003136686931677181
-6.027406003967065,0.0003191644066922912
-6.02039884086065,0.00032488618898744454
-6.013391677754235,0.00033084270040746036
-6.00638451464782,0.0003370421854951731
-5.999377351541405,0.000343492426408183
-5.9923701884349905,0.00035020069715598935
-5.985363025328575,0.00035717371888150263
-5.97835586222216,0.0003644176164188126
-5.971348699115745,0.00037193787635935436
-5.96434153600933,0.00037973930685505594
-5.957334372902915,0.0003878259993837269
-5.9503272097965,0.00039620129269772575
-5.9433200466900855,0.0004048677391704123
-5.93631288358367,0.0004138270737472178
-5.929305720477255,0.0004230801857013711
-5.922298557370841,0.0004326270933831624
-5.915291394264425,0.0004424669221417474
-5.90828423115801,0.0004525978855873568
-5.901277068051596,0.0004630172703482382
-5.8942699049451805,0.0004737214244629876
-5.887262741838765,0.00048470574953516504
-5.88025557873235,0.0004959646967605145
-5.873248415625936,0.0005074917669221587
-5.86624125251952,0.0005192795144304376
-5.859234089413105,0.0005313195554679916
-5.852226926306691,0.0005436025802817331
-5.845219763200276,0.0005561183696442679
-5.83821260009386,0.0005688558154897322
-5.831205436987446,0.0005818029457073503
-5.824198273881031,0.0005949469530590386
-5.8171911107746155,0.0006082742281652356
-5.8101839476682,0.0006217703964852411
-5.803176784561786,0.0006354203591986511
-5.796169621455371,0.0006492083378735278
-5.789162458348955,0.0006631179227901845
-5.782155295242541,0.0006771321247691742
-5.775148132136126,0.0006912334303349919
-5.7681409690297105,0.0007054038600292937
-5.761133805923296,0.0007196250296704304
-5.754126642816881,0.0007338782143406684
-5.747119479710466,0.0007481444148679708
-5.74011231660405,0.0007624044265540173
-5.733105153497636,0.0007766389098887048
-5.726097990391221,0.0007908284629793028
-5.719090827284806,0.0008049536954118077
-5.712083664178391,0.0008189953032532991
-5.705076501071976,0.0008329341448970258
-5.698069337965561,0.0008467513174445457
-5.691062174859146,0.0008604282333156796
-5.684055011752731,0.0008739466967738071
-5.677047848646316,0.0008872889800518192
-5.6700406855399015,0.0009004378987639869
-5.663033522433486,0.0009133768862920311
-5.656026359327071,0.0009260900668346559
-5.649019196220656,0.0009385623268162308
-5.642012033114241,0.000950779384356133
-5.635004870007826,0.0009627278565071148
-5.627997706901411,0.0009743953239820602
-5.6209905437949965,0.000985770393097761
-5.613983380688581,0.000996842754677348
-5.606976217582166,0.0010076032396655315
-5.599969054475752,0.0010180438712270564
-5.592961891369336,0.001028157913112412
-5.585954728262921,0.0010379399140940295
-5.578947565156506,0.0010473857482921848
-5.571940402050092,0.0010564926512300638
-5.564933238943676,0.0010652592514754132
-5.557926075837261,0.0010736855977486167
-5.550918912730847,0.0010817731813947858
-5.5439117496244315,0.0010895249541415927
-5.536904586518016,0.001096945341083194
-5.529897423411602,0.00110404024885505
-5.522890260305187,0.001110817068982869
-5.515883097198771,0.001117284676413022
-5.508875934092357,0.001123453423251976
-5.501868770985942,0.0011293351277627582
-5.4948616078795265,0.0011349430586879232
-5.487854444773111,0.0011402919149873481
-5.480847281666697,0.001145397801099841
-5.473840118560282,0.0011502781978536588
-5.466832955453866,0.0011549519291702331
-5.459825792347452,0.001159439124721771
-5.452818629241037,0.0011637611787175663
-5.4458114661346215,0.0011679407050084211
-5.438804303028207,0.001172001488712124
-5.431797139921792,0.0011759684345734637
-5.424789976815377,0.001179867512283145
-5.417782813708961,0.0011837256989874695
-5.410775650602547,0.0011875709192295377
-5.403768487496132,0.001191431982566864
-5.396761324389717,0.0011953385191154232
-5.389754161283302,0.0011993209132723662
-5.382746998176887,0.001203410235871064
-5.375739835070472,0.0012076381750216459
-5.368732671964057,0.00121203696588831
-5.361725508857642,0.0012166393196522034
-5.354718345751227,0.0012214783519028174
-5.347711182644812,0.0012265875106961645
-5.340704019538397,0.0012320005045103647
-5.333696856431982,0.001237751230320983
-5.326689693325567,0.001243873702009403
-5.319682530219152,0.00125040197930688
-5.312675367112737,0.0012573700974662532
-5.305668204006322,0.0012648119978405277
-5.2986610408999075,0.001272761459536601
-5.291653877793492,0.0012812520322974242
-5.284646714687077,0.0012903169707537167
-5.277639551580663,0.001299989170172639
-5.270632388474247,0.0013103011038164106
-5.263625225367832,0.0013212847620103873
-5.256618062261417,0.0013329715930068121
-5.249610899155003,0.0013453924457160979
-5.242603736048587,0.0013585775143652623
-5.235596572942172,0.0013725562851307595
-5.228589409835758,0.001387357484779841
-5.2215822467293425,0.0014030090313449312
-5.214575083622927,0.001419537986843951
-5.207567920516513,0.0014369705120508777
-5.200560757410098,0.0014553318233115847
-5.193553594303682,0.001474646151394001
-5.186546431197267,0.0014949367023537742
-5.179539268090853,0.0015162256203924808
-5.1725321049844375,0.0015385339526820803
-5.165524941878022,0.0015618816161257851
-5.158517778771608,0.0015862873660245063
-5.151510615665193,0.0016117687666186839
-5.144503452558777,0.0016383421634752217
-5.137496289452363,0.0016660226576928005
-5.130489126345948,0.00169482408190186
-5.1234819632395325,0.0017247589780397133
-5.116474800133117,0.001755838576887619
-5.109467637026703,0.0017880727793627524
-5.102460473920288,0.0018214701395650214
-5.095453310813872,0.0018560378495874475
-5.088446147707458,0.0018917817261061192
-5.081438984601043,0.001928706198776534
-5.074431821494628,0.001966814300470145
-5.067424658388213,0.0020061076593962707
-5.060417495281798,0.002046586493162662
-5.053410332175383,0.0020882496048375025
-5.046403169068968,0.0021310943810844752
-5.039396005962553,0.0021751167924503045
-5.032388842856138,0.0022203113958926693
-5.025381679749723,0.0022666713396415376
-5.018374516643308,0.0023141883704937503
-5.011367353536893,0.002362852843645095
-5.004360190430478,0.0024126537351664996
-4.997353027324063,0.0024635786572331213
-4.990345864217648,0.0025156138762152305
-4.983338701111233,0.0025687443337379864
-4.9763315380048185,0.0026229536708145497
-4.969324374898403,0.0026782242551501674
-4.962317211791988,0.002734537211709868
-4.955310048685573,0.0027918724566319275
-4.948302885579158,0.002850208734558808
-4.941295722472743,0.002909523659444339
-4.934288559366328,0.002969793758881545
-4.927281396259914,0.0030309945219780684
-4.920274233153498,0.003093100450788488
-4.913267070047083,0.003156085115292817
-4.906259906940669,0.0032199212118884132
-4.8992527438342535,0.003284580625339777
-4.892245580727838,0.00335003449410714
-4.885238417621424,0.0034162532789484214
-4.878231254515009,0.0034832068346645944
-4.871224091408593,0.0035508644848303824
-4.864216928302178,0.0036191950993265842
-4.857209765195764,0.0036881671744624736
-4.8502026020893485,0.003757748915450417
-4.843195438982933,0.0038279083209681337
-4.836188275876519,0.0038986132695183655
-4.829181112770104,0.003969831607271828
-4.822173949663688,0.0040415312370545966
-4.815166786557274,0.0041136802081211486
-4.808159623450859,0.004186246806332988
-4.8011524603444435,0.00425919964434587
-4.794145297238028,0.004332507751393211
-4.787138134131614,0.004406140662240697
-4.780130971025199,0.004480068504877305
-4.773123807918783,0.004554262086501136
-4.766116644812369,0.0046286929773552785
-4.759109481705954,0.0047033335919691105
-4.752102318599539,0.004778157267363307
-4.745095155493124,0.004853138337784845
-4.738087992386709,0.004928252205548156
-4.731080829280294,0.0050034754075743626
-4.7240736661738785,0.005078785677237898
-4.717066503067464,0.0051541620011517335
-4.710059339961049,0.005229584670548998
-4.703052176854634,0.005305035326946132
-4.696045013748219,0.005380497001806799
-4.689037850641804,0.005455954149959578
-4.682030687535389,0.0055313926765618825
-4.675023524428974,0.005606799957442755
-4.668016361322559,0.0056821648527006306
-4.661009198216144,0.005757477713477365
-4.6540020351097295,0.005832730381876484
-4.646994872003314,0.005907916184042296
-4.639987708896899,0.00598302991646379
-4.632980545790484,0.0060580678256192694
-4.625973382684069,0.00613302758112415
-4.618966219577654,0.0062079082425957055
-4.611959056471239,0.006282710220494415
-4.604951893364825,0.006357435231250746
-4.597944730258409,0.0064320862470286545
-4.590937567151994,0.006506667440521208
-4.58393040404558,0.00658118412521388
-4.5769232409391645,0.006655642691587299
-4.569916077832749,0.006730050539765126
-4.562908914726334,0.006804416009143096
-4.55590175161992,0.006878748305559764
-4.548894588513504,0.006953057426591436
-4.541887425407089,0.0070273540855706265
-4.534880262300675,0.007101649634937338
-4.5278730991942595,0.0071759559895414205
-4.520865936087844,0.007250285550512949
-4.51385877298143,0.0073246511303154075
-4.506851609875015,0.007399065879586206
-4.499844446768599,0.007473543216354347
-4.492837283662184,0.00754809675820535
-4.48583012055577,0.007622740257938452
-4.4788229574493545,0.007697487543230433
-4.471815794342939,0.007772352460786301
-4.464808631236525,0.007847348825417285
-4.45780146813011,0.007922490374443219
-4.450794305023694,0.007997790727768728
-4.44378714191728,0.008073263353933085
-4.436779978810865,0.008148921542377464
-4.42977281570445,0.008224778382120278
-4.422765652598035,0.008300846746970108
-4.41575848949162,0.00837713928734795
-4.408751326385205,0.008453668428728599
-4.4017441632787895,0.008530446376650748
-4.394737000172375,0.008607485128183889
-4.38772983706596,0.008684796489679984
-4.380722673959545,0.008762392100579507
-4.37371551085313,0.008840283462983184
-4.366708347746715,0.008918481976647765
-4.3597011846403,0.008996998979011071
-4.352694021533885,0.009075845789803756
-4.34568685842747,0.009155033759760942
-4.338679695321055,0.009234574322906808
-4.33167253221464,0.00931447905184941
-4.324665369108225,0.00939475971549362
-4.31765820600181,0.009475428338553908
-4.310651042895395,0.009556497262231234
-4.30364387978898,0.00963797920540329
-4.296636716682565,0.009719887325671063
-4.28962955357615,0.00980223527960314
-4.282622390469736,0.00988503728152386
-4.27561522736332,0.009968308160203386
-4.268608064256905,0.010052063412823185
-4.261600901150491,0.010136319255615507
-4.2545937380440755,0.01022109267060267
-4.24758657493766,0.010306401447896147
-4.240579411831245,0.010392264223056459
-4.233572248724831,0.010478700509056683
-4.226565085618415,0.010565730722442946
-4.219557922512,0.010653376203336857
-4.212550759405586,0.010741659228981088
-4.2055435962991705,0.010830603020588806
-4.198536433192755,0.010920231743318364
-4.191529270086341,0.01101057049925893
-4.184522106979926,0.011101645313376839
-4.17751494387351,0.011193483112438231
-4.170507780767095,0.011286111696988892
-4.163500617660681,0.011379559706537007
-4.1564934545542656,0.011473856578149012
-4.14948629144785,0.011569032498730432
-4.142479128341436,0.01166511835132359
-4.135471965235021,0.011762145655811674
-4.1284648021286054,0.011860146504471845
-4.121457639022191,0.011959153492869863
-4.114450475915776,0.01205919964663595
-4.107443312809361,0.01216031834469929
-4.100436149702945,0.012262543239598717
-4.093428986596531,0.012365908175513095
-4.086421823490116,0.012470447104682897
-4.0794146603837005,0.012576194002912
-4.072407497277286,0.012683182784850512
-4.065400334170871,0.012791447219767764
-4.058393171064456,0.012901020848523497
-4.051386007958041,0.013011936902438993
-4.044378844851626,0.013124228224759006
-4.037371681745211,0.013237927195375388
-4.030364518638796,0.013353065659459843
-4.023357355532381,0.013469674860623162
-4.016350192425966,0.013587785379182673
-4.009343029319551,0.013707427076079231
-4.002335866213136,0.013828629042938932
-3.995328703106721,0.013951419558727494
-3.9883215400003063,0.014075826053387759
-3.981314376893891,0.014201875078798123
-3.974307213787476,0.014329592287326446
-3.967300050681061,0.014459002418193638
-3.960292887574646,0.014590129291796355
-3.9532857244682313,0.014722995812072703
-3.946278561361816,0.014857623976929251
-3.9392713982554013,0.014994034896681014
-3.9322642351489865,0.015132248820390527
-3.9252570720425712,0.015272285169926864
-3.9182499089361564,0.015414162581502836
-3.911242745829741,0.015557898954386935
-3.9042355827233264,0.015703511506427868
-3.8972284196169116,0.015851016835974053
-3.8902212565104963,0.016000430989718876
-3.8832140934040815,0.016151769535952994
-3.8762069302976663,0.01630504764266257
-3.8691997671912515,0.01646028015987194
-3.8621926040848367,0.016617481705595235
-3.8551854409784214,0.016776666754732546
-3.8481782778720066,0.01693784973022182
-3.8411711147655914,0.017101045095739183
-3.8341639516591766,0.01726626744922861
-3.8271567885527618,0.01743353161653354
-3.8201496254463465,0.017602852744401695
-3.8131424623399317,0.017774246392139276
-3.8061352992335165,0.01794772862119905
-3.7991281361271017,0.018123316082002353
-3.792120973020687,0.018301026097314446
-3.7851138099142716,0.018480876741518625
-3.778106646807857,0.01866288691516192
-3.7710994837014415,0.018847076414181107
-3.7640923205950267,0.019033465993253857
-3.757085157488612,0.019222077422761642
-3.7500779943821967,0.019412933538895883
-3.743070831275782,0.01960605828648478
