Values,Density
-6.246426788796508,3.458895055097333e-7
-6.240720469364793,3.4986648322909986e-7
-6.235014149933077,3.5786005170290736e-7
-6.229307830501362,3.699368392173774e-7
-6.2236015110696465,3.8619723918831284e-7
-6.217895191637932,4.0677586349291417e-7
-6.212188872206217,4.3184214865155113e-7
-6.206482552774501,4.6160111086268607e-7
-6.200776233342786,4.962942510844393e-7
-6.1950699139110705,5.362006069709047e-7
-6.189363594479356,5.816379506362601e-7
-6.18365727504764,6.329641306646039e-7
-6.177950955615925,6.905785539523812e-7
-6.17224463618421,7.549238064119557e-7
-6.1665383167524945,8.264874076790996e-7
-6.16083199732078,9.058036969378236e-7
-6.155125677889064,9.934558444224528e-7
-6.149419358457349,1.0900779836564567e-6
-6.143713039025634,1.1963574594875404e-6
-6.1380067195939185,1.3130371839253918e-6
-6.132300400162204,1.4409180940644362e-6
-6.126594080730488,1.5808617020440785e-6
-6.120887761298773,1.7337927307736756e-6
-6.115181441867058,1.9007018218497596e-6
-6.1094751224353425,2.0826483085045755e-6
-6.103768803003628,2.280763038320366e-6
-6.098062483571912,2.496251235051261e-6
-6.092356164140197,2.7303953833712757e-6
-6.086649844708481,2.9845581228371554e-6
-6.0809435252767665,3.2601851329139286e-6
-6.075237205845052,3.558807992160018e-6
-6.069530886413336,3.882046992198518e-6
-6.063824566981621,4.231613885238156e-6
-6.058118247549905,4.609314545427068e-6
-6.0524119281181905,5.017051517787821e-6
-6.046705608686476,5.45682643412343e-6
-6.04099928925476,5.930742267346023e-6
-6.035292969823045,6.441005399161412e-6
-6.029586650391329,6.989927472781515e-6
-6.0238803309596145,7.579927001557726e-6
-6.0181740115279,8.213530703089084e-6
-6.012467692096184,8.893374529384337e-6
-6.006761372664469,9.622204359236927e-6
-6.001055053232753,1.0402876322115201e-5
-5.9953487338010385,1.1238356719241172e-5
-5.989642414369323,1.213172150987471e-5
-5.983936094937608,1.3086155327564006e-5
-5.978229775505893,1.410494999394378e-5
-5.972523456074177,1.5191502495827403e-5
-5.9668171366424625,1.6349312392718168e-5
-5.961110817210747,1.7581978622638675e-5
-5.955404497779032,1.8893195673587437e-5
-5.949698178347317,2.0286749090927744e-5
-5.943991858915601,2.1766510291350294e-5
-5.9382855394838865,2.333643065634706e-5
-5.932579220052171,2.5000534878263925e-5
-5.926872900620456,2.6762913537690426e-5
-5.921166581188741,2.8627714890631754e-5
-5.915460261757025,3.059913584729356e-5
-5.9097539423253105,3.268141212893656e-5
-5.904047622893595,3.4878807591491416e-5
-5.89834130346188,3.719560270867145e-5
-5.892634984030164,3.963608221202366e-5
-5.886928664598449,4.220452188896662e-5
-5.8812223451667345,4.490517454586174e-5
-5.875516025735019,4.7742255146806384e-5
-5.869809706303304,5.0719925144746686e-5
-5.864103386871588,5.3842276027397246e-5
-5.858397067439873,5.711331210583523e-5
-5.8526907480081585,6.053693257872944e-5
-5.846984428576443,6.411691291345264e-5
-5.841278109144728,6.785688558832124e-5
-5.835571789713012,7.176032024989835e-5
-5.829865470281297,7.583050334336941e-5
-5.8241591508495825,8.007051728026182e-5
-5.818452831417867,8.448321921610512e-5
-5.812746511986152,8.907121951434206e-5
-5.807040192554436,9.383685998097004e-5
-5.801333873122721,9.878219195859003e-5
-5.7956275536910065,0.00010390895437528344
-5.789921234259291,0.00010921855184977021
-5.784214914827576,0.0001147120329555544
-5.77850859539586,0.00012039006875848475
-5.772802275964145,0.00012625293173775323
-5.76709595653243,0.00013230047521163753
-5.761389637100715,0.00013853211338701703
-5.755683317669,0.00014494680215815757
-5.749976998237284,0.00015154302077845065
-5.744270678805569,0.00015831875453371433
-5.738564359373854,0.00016527147854351887
-5.732858039942139,0.0001723981428170384
-5.727151720510424,0.00017969515869031664
-5.721445401078708,0.0001871583867683567
-5.715739081646993,0.0001947831264926831
-5.710032762215278,0.0002025641074528614
-5.704326442783563,0.0002104954825537693
-5.698620123351848,0.00021857082314710383
-5.692913803920132,0.00022678311622734149
-5.687207484488417,0.0002351247637861001
-5.6815011650567016,0.000243587584411762
-5.675794845624987,0.000252162817209467
-5.670088526193271,0.00026084112811008975
-5.664382206761556,0.00026961261862426533
-5.658675887329841,0.00027846683708659253
-5.6529695678981255,0.00028739279242324944
-5.647263248466411,0.0002963789704654822
-5.641556929034695,0.00030541335281430645
-5.63585060960298,0.000314483438252907
-5.630144290171265,0.00032357626668575584
-5.6244379707395495,0.0003326784455706562
-5.618731651307835,0.0003417761787956816
-5.613025331876119,0.0003508552979372796
-5.607319012444404,0.00035990129582223057
-5.601612693012689,0.0003688993623002339
-5.5959063735809735,0.00037783442212194207
-5.590200054149259,0.000386691174799194
-5.584493734717543,0.00039545413631483436
-5.578787415285828,0.0004041076825323821
-5.573081095854112,0.0004126360941462612
-5.5673747764223975,0.0004210236029982828
-5.561668456990683,0.0004292544395781521
-5.555962137558967,0.00043731288151230285
-5.550255818127252,0.0004451833028380446
-5.544549498695536,0.0004528502238512755
-5.5388431792638215,0.00046029836130838733
-5.533136859832107,0.0004675126787571579
-5.527430540400391,0.0004744784367680787
-5.521724220968676,0.00048118124283164955
-5.51601790153696,0.0004876071006879451
-5.5103115821052455,0.0004937424588524961
-5.504605262673531,0.0004995742581038604
-5.498898943241815,0.0005050899777007782
-5.4931926238101,0.0005102776801010449
-5.487486304378384,0.0005151260539576659
-5.4817799849466695,0.0005196244551773851
-5.476073665514954,0.0005237629458318752
-5.470367346083239,0.0005275323307234979
-5.464661026651524,0.0005309241914169018
-5.458954707219808,0.0005339309175606821
-5.4532483877880935,0.0005365457353355418
-5.447542068356378,0.00053876273288039
-5.441835748924663,0.0005405768825630791
-5.436129429492948,0.0005419840599776814
-5.430423110061232,0.0005429810595684731
-5.4247167906295175,0.0005435656067976913
-5.419010471197802,0.0005437363667917978
-5.413304151766087,0.0005434929494214334
-5.407597832334372,0.00054283591078675
-5.401891512902656,0.0005417667511013052
-5.3961851934709415,0.0005402879089844853
-5.390478874039226,0.0005384027521949351
-5.384772554607511,0.0005361155648518634
-5.379066235175795,0.000533431531213744
-5.37335991574408,0.0005303567161001367
-5.3676535963123655,0.0005268980420596488
-5.36194727688065,0.0005230632634044968
-5.356240957448935,0.0005188609372488093
-5.350534638017219,0.0005143003917006325
-5.344828318585504,0.0005093916913744383
-5.3391219991537895,0.000504145600402111
-5.333415679722074,0.0004985735431319027
-5.327709360290359,0.0004926875627180305
-5.322003040858643,0.000486500277808298
-5.316296721426928,0.00048002483754994163
-5.3105904019952135,0.00047327487513617456
-5.304884082563498,0.00046626446012368317
-5.299177763131783,0.00045900804975359394
-5.293471443700067,0.00045152043951049436
-5.287765124268352,0.00044381671315536775
-5.282058804836637,0.00043591219246719506
-5.276352485404922,0.0004278223869261487
-5.270646165973207,0.00041956294356587306
-5.264939846541491,0.00041114959722159117
-5.259233527109776,0.0004025981213897009
-5.253527207678061,0.00039392427991066445
-5.247820888246346,0.00038514377967768104
-5.242114568814631,0.000376272224563233
-5.236408249382915,0.0003673250707455014
-5.2307019299512,0.0003583175836076695
-5.224995610519485,0.0003492647963658016
-5.21928929108777,0.00034018147057427936
-5.213582971656055,0.00033108205863931553
-5.207876652224339,0.00032198066846176807
-5.202170332792624,0.0003128910303112076
-5.196464013360909,0.00030382646602441707
-5.190757693929194,0.00029479986060194224
-5.185051374497478,0.00028582363626543025
-5.179345055065763,0.00027690972902069677
-5.173638735634048,0.00026806956776096597
-5.167932416202333,0.00025931405592565307
-5.162226096770618,0.00025065355572114964
-5.156519777338902,0.00024209787489374093
-5.150813457907187,0.00023365625603118806
-5.145107138475472,0.00022533736836133356
-5.139400819043757,0.0002171493019987522
-5.133694499612042,0.00020909956458394635
-5.127988180180326,0.00020119508024756677
-5.122281860748611,0.00019344219082199215
-5.116575541316896,0.00018584665921560217
-5.110869221885181,0.00017841367485595117
-5.105162902453466,0.0001711478611015893
-5.09945658302175,0.0001640532845168241
-5.093750263590035,0.00015713346589709548
-5.088043944158319,0.00015039139293042403
-5.0823376247266046,0.00014382953437509782
-5.07663130529489,0.00013744985563321488
-5.070924985863174,0.0001312538355956877
-5.065218666431459,0.00012524248463680748
-5.059512346999743,0.00011941636363339142
-5.0538060275680285,0.0001137756038857643
-5.048099708136314,0.00010831992782060415
-5.042393388704598,0.00010304867035502985
-5.036687069272883,9.796080080696004e-5
-5.030980749841167,9.305494523890318e-5
-5.0252744304094525,8.832940912687978e-5
-5.019568110977738,8.37822002499912e-5
-5.013861791546022,7.941105170227933e-5
-5.008155472114307,7.521344493349388e-5
-5.002449152682591,7.11866327299665e-5
-4.9967428332508765,6.732766205484048e-5
-4.991036513819162,6.363339667154674e-5
-4.985330194387446,6.0100539481085236e-5
-4.979623874955731,5.672565451080372e-5
-4.973917555524015,5.350518849819852e-5
-4.9682112360923005,5.043549201994707e-5
-4.962504916660585,4.751284012414342e-5
-4.95679859722887,4.4733452426989895e-5
-4.951092277797155,4.20935126463004e-5
-4.945385958365439,3.958918754561752e-5
-4.9396796389337245,3.7216645271953563e-5
-4.933973319502009,3.497207307443656e-5
-4.928267000070294,3.2851694396991704e-5
-4.922560680638579,3.0851785343614935e-5
-4.916854361206863,2.8968690519159956e-5
-4.9111480417751485,2.719883825371902e-5
-4.905441722343433,2.5538755221984205e-5
-4.899735402911718,2.398508047421824e-5
-4.894029083480003,2.253457889735133e-5
-4.888322764048287,2.1184154128404964e-5
-4.8826164446165725,1.9930860945139434e-5
-4.876910125184857,1.877191716171886e-5
-4.871203805753142,1.7704715055869014e-5
-4.865497486321426,1.6726832361094873e-5
-4.859791166889711,1.5836042851630205e-5
-4.8540848474579965,1.5030326553661794e-5
-4.848378528026281,1.430787961406721e-5
-4.842672208594566,1.3667123857946661e-5
-4.83696588916285,1.3106716065552915e-5
-4.831259569731135,1.2625556998265702e-5
-4.8255532502994205,1.2222800201824174e-5
-4.819846930867705,1.1897860613285793e-5
-4.81414061143599,1.1650422995203302e-5
-4.808434292004274,1.1480450219977095e-5
-4.802727972572559,1.138819142133124e-5
-4.7970216531408445,1.1374190030381814e-5
-4.791315333709129,1.1439291708093685e-5
-4.785609014277414,1.1584652182082674e-5
-4.779902694845698,1.1811744993984932e-5
-4.774196375413983,1.212236915646152e-5
-4.768490055982268,1.2518656718227316e-5
-4.762783736550553,1.3003080227479537e-5
-4.757077417118838,1.3578460081996356e-5
-4.751371097687122,1.42479717486207e-5
-4.745664778255407,1.501515283042253e-5
-4.739958458823692,1.5883909953551484e-5
-4.734252139391977,1.6858525444262123e-5
-4.728545819960262,1.794366375773679e-5
-4.722839500528546,1.9144377618510698e-5
-4.717133181096831,2.046611382658587e-5
-4.711426861665116,2.1914718678895848e-5
-4.705720542233401,2.349644295025408e-5
-4.700014222801686,2.5217946376841706e-5
-4.69430790336997,2.708630157675397e-5
-4.688601583938255,2.9108997342201142e-5
-4.68289526450654,3.129394123335292e-5
-4.677188945074825,3.364946139886591e-5
-4.671482625643109,3.6184307549285495e-5
-4.665776306211394,3.8907651002431675e-5
-4.660069986779679,4.182908372302944e-5
-4.654363667347964,4.495861627265617e-5
-4.648657347916249,4.830667458932344e-5
-4.642951028484533,5.188409551322979e-5
-4.637244709052818,5.570212097605971e-5
-4.631538389621103,5.9772390773035495e-5
-4.625832070189388,6.410693383765442e-5
-4.620125750757673,6.871815794117636e-5
-4.614419431325957,7.36188377430659e-5
-4.608713111894242,7.882210112110822e-5
-4.603006792462527,8.434141371498755e-5
-4.597300473030812,9.019056162260647e-5
-4.591594153599097,9.638363219322335e-5
-4.585887834167381,0.00010293499287015312
-4.580181514735666,0.00010985926804153029
-4.57447519530395,0.00011717131386675822
-4.568768875872236,0.00012488619105537405
-4.563062556440521,0.00013301913558450007
-4.557356237008805,0.00014158552735137053
-4.55164991757709,0.00015060085676922574
-4.545943598145374,0.0001600806893257041
-4.54023727871366,0.00017004062813562315
-4.534530959281945,0.0001804962745332664
-4.528824639850229,0.00019146318676189697
-4.523118320418514,0.00020295683683153876
-4.517412000986798,0.0002149925656318684
-4.511705681555084,0.00022758553639955909
-4.505999362123369,0.00024075068665357913
-4.500293042691653,0.0002545026787293819
-4.494586723259938,0.00026885584905255236
-4.488880403828222,0.0002838241563115282
-4.4831740843965076,0.0002994211286997499
-4.477467764964792,0.00031565981041335386
-4.471761445533077,0.00033255270760195604
-4.466055126101362,0.0003501117339844654
-4.460348806669646,0.000368348156352602
-4.4546424872379315,0.0003872725401967633
-4.448936167806216,0.0004068946956976606
-4.443229848374501,0.0004272236243392444
-4.437523528942786,0.0004482674664020754
-4.43181720951107,0.00047003344960759065
-4.4261108900793555,0.0004925278391861385
-4.42040457064764,0.0005157558896459885
-4.414698251215925,0.0005397217985244479
-4.40899193178421,0.0005644286624006435
-4.403285612352494,0.0005898784354505526
-4.3975792929207795,0.0006160718908206769
-4.391872973489064,0.0006430085850933354
-4.386166654057349,0.0006706868261084908
-4.380460334625633,0.0006991036444008655
-4.374754015193918,0.0007282547684984222
-4.3690476957622035,0.0007581346043184084
-4.363341376330488,0.0007887362188805612
-4.357635056898773,0.0008200513285439026
-4.351928737467057,0.0008520702919532774
-4.346222418035342,0.0008847821078641939
-4.3405160986036275,0.0009181744179909603
-4.334809779171912,0.0009522335150035852
-4.329103459740197,0.0009869443557712285
-4.323397140308481,0.001022290579925915
-4.317690820876766,0.0010582545337937156
-4.3119845014450515,0.0010948172997113786
-4.306278182013336,0.0011319587307177994
-4.300571862581621,0.0011696574905807142
-4.294865543149905,0.0012078910990877389
-4.28915922371819,0.00124663598250074
-4.2834529042864755,0.0012858675290413762
-4.27774658485476,0.0013255601492458864
-4.272040265423045,0.0013656873409945251
-4.266333945991329,0.0014062217589937906
-4.260627626559614,0.001447135288457916
-4.254921307127899,0.0014883991227085322
-4.249214987696184,0.0015299838443850917
-4.243508668264469,0.0015718595099306568
-4.237802348832753,0.00161399573699526
-4.232096029401038,0.0016563617943755916
-4.226389709969323,0.001698926694088651
-4.220683390537608,0.0017416592851605475
-4.214977071105893,0.0017845283486925129
-4.209270751674177,0.0018275026937556518
-4.203564432242462,0.0018705512536527566
-4.197858112810747,0.0019136431820787267
-4.192151793379032,0.001956747948704332
-4.186445473947317,0.0019998354337077036
-4.180739154515601,0.002042876020776095
-4.175032835083886,0.002085840688106447
-4.169326515652171,0.002128701096938232
-4.163620196220456,0.00217142967716355
-4.15791387678874,0.0022139997095704
-4.152207557357025,0.002256385404293338
-4.14650123792531,0.002298561975062518
-4.140794918493595,0.0023405057088651624
-4.13508859906188,0.0023821940306575674
-4.129382279630164,0.0024236055627924642
-4.123675960198449,0.0024647201788571115
-4.117969640766734,0.002505519051647701
-4.112263321335019,0.0025459846950415498
-4.106557001903304,0.00258610099956204
-4.100850682471588,0.002625853261470258
-4.095144363039873,0.0026652282052554346
-4.089438043608158,0.0027042139994357846
-4.083731724176443,0.002742800265621976
-4.078025404744728,0.00278097808083818
-4.072319085313012,0.0028187399731342093
-4.066612765881297,0.0028560799105668173
-4.060906446449581,0.0028929932836679537
-4.055200127017867,0.0029294768815578322
-4.049493807586152,0.0029655288619022634
-4.043787488154436,0.0030011487149504586
-4.038081168722721,0.0030363372219282918
-4.032374849291005,0.003071096408096127
-4.026668529859291,0.003105429490815277
-4.020962210427576,0.003139340822997069
-4.01525589099586,0.0031728358323396978
-4.009549571564145,0.0032059209567810217
-4.003843252132429,0.0032386035766234205
-3.9981369327007146,0.003270891943803018
-3.9924306132689993,0.0033027951087962765
-3.986724293837284,0.0033343228456694796
-3.9810179744055687,0.003365485575788635
-3.975311654973854,0.003396294290712627
-3.9696053355421386,0.0034267604747991644
-3.9638990161104233,0.0034568960280514528
-3.958192696678708,0.003486713189730258
-3.9524863772469927,0.0035162244632510557
-3.9467800578152774,0.003545442542873301
-3.9410737383835626,0.003574380242677918
-3.9353674189518473,0.00360305042830914
-3.929661099520132,0.0036314659519404973
-3.9239547800884167,0.0036596395908970007
-3.9182484606567014,0.0036875839903439765
-3.9125421412249866,0.0037153116104210303
-3.9068358217932713,0.0037428346781695904
-3.901129502361556,0.0037701651445687934
-3.8954231829298407,0.003797314646958821
-3.8897168634981254,0.0038242944770923116
-3.88401054406641,0.003851115555017529
-3.8783042246346953,0.0038777884089537884
-3.87259790520298,0.0039043231612811043
-3.8668915857712647,0.003930729520721779
-3.8611852663395494,0.003957016780750125
-3.855478946907834,0.0039831938242242265
-3.849772627476119,0.004009269134189787
-3.844066308044404,0.004035250810765754
-3.8383599886126887,0.004061146593978847
-3.8326536691809734,0.004086963892374479
-3.826947349749258,0.004112709817192108
-3.821241030317543,0.004138391221856618
-3.815534710885828,0.004164014746500229
-3.8098283914541127,0.004189586867197092
-3.8041220720223974,0.004215113949561425
-3.798415752590682,0.0042406023063304285
-3.792709433158967,0.004266058258527623
-3.7870031137272515,0.0042914881997796845
-3.7812967942955367,0.004316898663338228
-3.7755904748638214,0.004342296391341972
-3.769884155432106,0.004367688405840478
-3.764177836000391,0.004393082081089826
-3.7584715165686755,0.004418485216624262
-3.75276519713696,0.004443906110602671
-3.7470588777052454,0.004469353632929488
-3.74135255827353,0.004494837297652538
-3.735646238841815,0.004520367334146057
-3.7299399194100995,0.004545954756597187
-3.724233599978384,0.004571611431327523
-3.7185272805466694,0.004597350141495323
-3.712820961114954,0.004623184648746569
-3.707114641683239,0.004649129751399598
-3.7014083222515235,0.004675201338777146
-3.695702002819808,0.004701416441323001
-3.689995683388093,0.004727793276170558
-3.684289363956378,0.004754351287861173
-3.678583044524663,0.0047811111839424925
-3.6728767250929475,0.004808094965211314
-3.667170405661232,0.004835325950399224
-3.661464086229517,0.004862828795137324
-3.655757766797802,0.004890629505070489
-3.6500514473660868,0.004918755443030918
-3.6443451279343715,0.004947235330215039
-3.638638808502656,0.004976099241346583
-3.632932489070941,0.00500537859384342
-3.6272261696392256,0.005035106131041431
-3.6215198502075108,0.0050653158995620775
-3.6158135307757955,0.0050960432209448195
-3.61010721134408,0.00512732465769322
-3.604400891912365,0.005159197973917224
-3.5986945724806496,0.005191702090776945
-3.5929882530489343,0.0052248770369607124
-3.5872819336172195,0.0052587638944519444
-3.581575614185504,0.005293404739857974
-3.575869294753789,0.005328842581593468
-3.5701629753220736,0.00536512129322177
-3.5644566558903583,0.005402285543271726
-3.5587503364586435,0.005440380721853877
-3.553044017026928,0.005479452864406199
-3.547337697595213,0.005519548572900649
-3.5416313781634976,0.0055607149348419925
-3.5359250587317823,0.0056029994403857955
-3.530218739300067,0.005646449897897288
-3.524512419868352,0.005691114348261077
-3.518806100436637,0.0057370409782434885
-3.5130997810049216,0.005784278033191943
-3.5073934615732063,0.005832873729341282
-3.501687142141491,0.005882876165978584
-3.4959808227097757,0.005934333237697719
-3.490274503278061,0.005987292546953878
-3.4845681838463456,0.0060418013171060075
-3.4788618644146303,0.006097906306111213
-3.473155544982915,0.006155653721012809
-3.4674492255511997,0.006215089133338007
-3.461742906119485,0.006276257395498582
