Values,Density
-9.79711680287679,1.3556901276579048e-7
-9.787922474930085,1.340918997366769e-7
-9.77872814698338,1.3468390411275344e-7
-9.769533819036676,1.3733659834369583e-7
-9.76033949108997,1.420651662281669e-7
-9.751145163143265,1.4890825164592947e-7
-9.74195083519656,1.57927968980065e-7
-9.732756507249857,1.6921007137127297e-7
-9.723562179303151,1.8286427308500386e-7
-9.714367851356446,1.9902472256361214e-7
-9.70517352340974,2.178506223471377e-7
-9.695979195463037,2.3952699262919097e-7
-9.686784867516332,2.6426557483971713e-7
-9.677590539569627,2.9230587113293627e-7
-9.668396211622921,3.2391631660244613e-7
-9.659201883676218,3.593955798797399e-7
-9.650007555729513,3.990739878140248e-7
-9.640813227782807,4.4331506969530476e-7
-9.631618899836102,4.925172162606462e-7
-9.622424571889399,5.471154479325113e-7
-9.613230243942693,6.075832861690555e-7
-9.604035915995988,6.74434721931183e-7
-9.594841588049283,7.482262738278678e-7
-9.58564726010258,8.295591284457338e-7
-9.576452932155874,9.190813536480436e-7
-9.567258604209169,1.017490176349889e-6
-9.558064276262463,1.1255343142085872e-6
-9.54886994831576,1.2440163497384749e-6
-9.539675620369055,1.3737951351511235e-6
-9.53048129242235,1.5157882149174906e-6
-9.521286964475644,1.6709742516607395e-6
-9.51209263652894,1.8403954403639622e-6
-9.502898308582235,2.025159894659262e-6
-9.49370398063553,2.226443988229132e-6
-9.484509652688825,2.4454946326779234e-6
-9.475315324742121,2.683631472535572e-6
-9.466120996795416,2.942248977823303e-6
-9.45692666884871,3.222818411694958e-6
-9.447732340902006,3.5268896524847174e-6
-9.4385380129553,3.856092845968759e-6
-9.429343685008597,4.21213986521226e-6
-9.420149357061891,4.596825553010442e-6
-9.410955029115186,5.0120287228283544e-6
-9.401760701168481,5.4597128922471636e-6
-9.392566373221777,5.941926724780874e-6
-9.383372045275072,6.460804153613289e-6
-9.374177717328367,7.018564162548403e-6
-9.364983389381662,7.617510199019878e-6
-9.355789061434958,8.260029194608054e-6
-9.346594733488253,8.948590169578947e-6
-9.337400405541548,9.685742398265855e-6
-9.328206077594842,1.0474113113553146e-5
-9.319011749648139,1.1316404730692467e-5
-9.309817421701434,1.2215391570691118e-5
-9.300623093754728,1.3173916067636682e-5
-9.291428765808023,1.4194884444025321e-5
-9.28223443786132,1.5281261842090346e-5
-9.273040109914614,1.6436066901499846e-5
-9.263845781967909,1.766236577557291e-5
-9.254651454021204,1.8963265581945637e-5
-9.2454571260745,2.0341907287326974e-5
-9.236262798127795,2.1801458027406913e-5
-9.22706847018109,2.3345102868742307e-5
-9.217874142234384,2.497603602157842e-5
-9.208679814287681,2.6697451517020826e-5
-9.199485486340976,2.8512533365243967e-5
-9.19029115839427,3.042444521657306e-5
-9.181096830447565,3.24363195492788e-5
-9.171902502500862,3.4551246414066955e-5
-9.162708174554156,3.6772261767510465e-5
-9.153513846607451,3.910233543157841e-5
-9.144319518660746,4.1544358719016426e-5
-9.135125190714042,4.410113177043956e-5
-9.125930862767337,4.6775350648480506e-5
-9.116736534820632,4.95695942420802e-5
-9.107542206873926,5.248631103349499e-5
-9.098347878927221,5.55278057853938e-5
-9.089153550980518,5.869622620732935e-5
-9.079959223033812,6.19935496621437e-5
-9.070764895087107,6.542156997652732e-5
-9.061570567140402,6.898188441962008e-5
-9.052376239193698,7.267588091470958e-5
-9.043181911246993,7.650472555145813e-5
-9.033987583300288,8.046935046330389e-5
-9.024793255353583,8.457044213717926e-5
-9.015598927406879,8.880843021958316e-5
-9.006404599460174,9.318347688433426e-5
-8.997210271513469,9.769546682282613e-5
-8.988015943566763,0.00010234399791795266
-8.97882161562006,0.00010712837265919317
-8.969627287673354,0.00011204759035356084
-8.96043295972665,0.00011710034018381794
-8.951238631779944,0.0001222849951622619
-8.94204430383324,0.00012759960702350475
-8.932849975886535,0.00013304190209606796
-8.92365564793983,0.00013860927818789203
-8.914461319993125,0.00014429880251625067
-8.905266992046421,0.00015010721070726415
-8.896072664099716,0.00015603090688566003
-8.88687833615301,0.00016206596486992297
-8.877684008206305,0.00016820813048335458
-8.868489680259602,0.0001744528249851187
-8.859295352312897,0.00018079514962214722
-8.850101024366191,0.00018722989129593172
-8.840906696419486,0.00019375152933457165
-8.831712368472783,0.00020035424335471813
-8.822518040526077,0.00020703192219440926
-8.813323712579372,0.00021377817389265502
-8.804129384632667,0.00022058633668845494
-8.794935056685963,0.00022744949100683004
-8.785740728739258,0.00023436047239751637
-8.776546400792553,0.00024131188538726277
-8.767352072845847,0.00024829611820488366
-8.758157744899142,0.000255305358335069
-8.748963416952439,0.000262331608854598
-8.739769089005733,0.00026936670550311344
-8.730574761059028,0.0002764023344383956
-8.721380433112323,0.00028343005062460205
-8.71218610516562,0.00029044129680146514
-8.702991777218914,0.000297427422980741
-8.693797449272209,0.00030437970641496344
-8.684603121325503,0.0003112893719850948
-8.6754087933788,0.00031814761295013375
-8.666214465432095,0.00032494561200377154
-8.65702013748539,0.0003316745625817786
-8.647825809538684,0.000338325690363849
-8.63863148159198,0.00034489027491303725
-8.629437153645275,0.00035135967139591096
-8.62024282569857,0.0003577253323265601
-8.611048497751865,0.0003639788292762302
-8.601854169805161,0.0003701118744909946
-8.592659841858456,0.0003761163423585262
-8.58346551391175,0.0003819842906649766
-8.574271185965046,0.0003877079815821933
-8.565076858018342,0.00039327990232426724
-8.555882530071637,0.0003986927854119863
-8.546688202124932,0.00040393962848356106
-8.537493874178226,0.00040901371358746663
-8.528299546231523,0.00041390862589427667
-8.519105218284817,0.0004186182717621813
-8.509910890338112,0.0004231368960914833
-8.500716562391407,0.0004274590989014407
-8.491522234444703,0.0004315798510645362
-8.482327906497998,0.000435494509130668
-8.473133578551293,0.0004391988291772026
-8.463939250604588,0.00044268897961865887
-8.454744922657884,0.00044596155291278493
-8.445550594711179,0.00044901357610121345
-8.436356266764474,0.0004518425201243542
-8.427161938817768,0.0004544463078533928
-8.417967610871063,0.0004568233207867204
-8.40877328292436,0.0004589724043603605
-8.399578954977654,0.00046089287182805774
-8.390384627030949,0.0004625845066724213
-8.381190299084244,0.0004640475635138133
-8.37199597113754,0.00046528276749138557
-8.362801643190835,0.0004662913120982541
-8.35360731524413,0.00046707485546113037
-8.344412987297424,0.0004676355150635154
-8.335218659350721,0.0004679758609216862
-8.326024331404016,0.00046809890723242993
-8.31683000345731,0.0004680081025223888
-8.307635675510605,0.00046770731833933703
-8.298441347563902,0.00046720083653770117
-8.289247019617196,0.00046649333522127447
-8.280052691670491,0.00046558987341799654
-8.270858363723786,0.0004644958745726076
-8.261664035777082,0.00046321710895430926
-8.252469707830377,0.0004617596750878059
-8.243275379883672,0.00046012998032461845
-8.234081051936966,0.00045833472068365806
-8.224886723990263,0.000456380860096469
-8.215692396043558,0.00045427560920201573
-8.206498068096852,0.00045202640384211026
-8.197303740150147,0.0004496408834138172
-8.188109412203444,0.00044712686924005055
-8.178915084256738,0.0004444923431227467
-8.169720756310033,0.0004417454262426856
-8.160526428363328,0.00043889435857224525
-8.151332100416624,0.00043594747896298896
-8.142137772469919,0.0004329132060683777
-8.132943444523214,0.0004298000202548249
-8.123749116576509,0.00042661644664855787
-8.114554788629805,0.00042337103945573606
-8.1053604606831,0.0004200723676831622
-8.096166132736395,0.00041672900237479243
-8.08697180478969,0.00041334950546464966
-8.077777476842984,0.0004099424203319489
-8.06858314889628,0.0004065162641273025
-8.059388820949575,0.0004030795219205057
-8.05019449300287,0.0003996406427017492
-8.041000165056165,0.00039620803724737565
-8.031805837109461,0.0003927900778414196
-8.022611509162756,0.0003893950998216534
-8.01341718121605,0.0003860314048985316
-8.004222853269345,0.00038270726617208387
-7.995028525322641,0.0003794309347521143
-7.985834197375937,0.0003762106478639414
-7.976639869429231,0.0003730546383030088
-7.967445541482527,0.00036997114508019284
-7.958251213535822,0.0003669684250831983
-7.949056885589117,0.00036405476555993743
-7.939862557642412,0.00036123849721536073
-7.930668229695708,0.0003585280076992617
-7.921473901749002,0.00035593175524969815
-7.912279573802298,0.00035345828224817716
-7.903085245855593,0.0003511162284334625
-7.893890917908888,0.00034891434351776336
-7.884696589962183,0.00034686149894525876
-7.875502262015479,0.00034496669853310326
-7.866307934068773,0.0003432390877392546
-7.857113606122069,0.00034168796130536975
-7.847919278175364,0.00034032276903335143
-7.838724950228659,0.0003391531194636404
-7.829530622281954,0.000338188781239368
-7.82033629433525,0.00033743968195522334
-7.811141966388544,0.0003369159043105146
-7.80194763844184,0.00033662767940729945
-7.792753310495135,0.0003365853770579078
-7.78355898254843,0.00033679949299281284
-7.774364654601725,0.0003372806328876352
-7.765170326655021,0.0003380394931573648
-7.7559759987083154,0.0003390868384970571
-7.746781670761611,0.0003404334761804347
-7.737587342814906,0.0003420902271599538
-7.7283930148682005,0.00034406789404710196
-7.719198686921496,0.00034637722608264407
-7.710004358974791,0.0003490288812426183
-7.7008100310280865,0.00035203338565726813
-7.691615703081381,0.000355401090553183
-7.682421375134677,0.0003591421269596596
-7.6732270471879716,0.0003632663584502878
-7.664032719241267,0.00036778333221924517
-7.654838391294562,0.0003727022288162983
-7.6456440633478575,0.00037803181089039566
-7.636449735401152,0.0003837803713106283
-7.627255407454448,0.0003899556810533847
-7.618061079507743,0.0003965649372582071
-7.608866751561038,0.0004036147118680108
-7.599672423614333,0.00041111090127667754
-7.5904780956676285,0.0004190586774131576
-7.581283767720923,0.0004274624406906402
-7.572089439774219,0.0004363257752490104
-7.562895111827514,0.0004456514069100699
-7.553700783880809,0.000455441164256375
-7.544506455934104,0.0004656959432298227
-7.5353121279874,0.0004764156756283944
-7.526117800040694,0.0004875993018581288
-7.51692347209399,0.0004992447482721884
-7.507729144147285,0.0005113489094014977
-7.49853481620058,0.0005239076353485269
-7.489340488253875,0.0005369157245834165
-7.480146160307171,0.0005503669223431511
-7.470951832360465,0.0005642539247965547
-7.461757504413761,0.0005785683890958335
-7.452563176467056,0.0005933009493933735
-7.443368848520351,0.0006084412388577326
-7.434174520573646,0.0006239779176786281
-7.424980192626942,0.000639898707004385
-7.415785864680236,0.0006561904287106567
-7.406591536733532,0.000672839050853444
-7.397397208786827,0.0006898297386152836
-7.3882028808401214,0.0007071469105100643
-7.379008552893417,0.0007247742995701739
-7.369814224946712,0.000742695019200078
-7.360619897000007,0.000760891633342561
-7.351425569053302,0.0007793462305692915
-7.342231241106598,0.0007980405016755625
-7.3330369131598925,0.0008169558203306049
-7.323842585213188,0.0008360733263097901
-7.314648257266483,0.0008553740108136992
-7.305453929319778,0.0008748388033628558
-7.296259601373073,0.0008944486597434746
-7.287065273426369,0.0009141846504703603
-7.2778709454796635,0.0009340280492308205
-7.268676617532959,0.0009539604207717885
-7.259482289586254,0.0009739637076985556
-7.2502879616395495,0.0009940203156617814
-7.241093633692844,0.001014113196423481
-7.23189930574614,0.0010342259283098823
-7.2227049777994345,0.0010543427935809087
-7.21351064985273,0.0010744488522711282
-7.204316321906025,0.0010945300120859798
-7.1951219939593205,0.0011145730939690758
-7.185927666012615,0.0011345658929908962
-7.176733338065911,0.0011544972342473403
-7.167539010119206,0.00117435702349522
-7.158344682172501,0.0011941362922935008
-7.149150354225796,0.0012138272374613646
-7.1399560262790915,0.001233423254708283
-7.130761698332386,0.0012529189663337565
-7.121567370385682,0.0012723102429398406
-7.112373042438977,0.0012915942191420813
-7.103178714492272,0.001310769303307457
-7.093984386545567,0.0013298351813893017
-7.084790058598863,0.0013487928149692376
-7.075595730652157,0.001367644433654061
-7.066401402705453,0.001386393522010438
-7.057207074758748,0.001405044801254576
-7.048012746812042,0.0014236042059429625
-7.038818418865338,0.0014420788559382763
-7.029624090918633,0.001460477023948097
-7.020429762971928,0.0014788080989544435
-7.011235435025223,0.0014970825458693934
-7.002041107078519,0.00151531186176571
-6.992846779131813,0.0015335085290407065
-6.983652451185109,0.001551685965878926
-6.974458123238404,0.0015698584743815331
-6.965263795291699,0.0015880411867303535
-6.956069467344994,0.001606250009751104
-6.94687513939829,0.0016245015682340518
-6.937680811451584,0.0016428131473610816
-6.92848648350488,0.0016612026345764089
-6.919292155558175,0.0016796884612254948
-6.91009782761147,0.0016982895442688379
-6.900903499664765,0.0017170252283627353
-6.891709171718061,0.0017359152285779723
-6.8825148437713555,0.001754979574009588
-6.873320515824651,0.0017742385525092474
-6.864126187877946,0.0017937126567523331
-6.854931859931241,0.0018134225318295685
-6.845737531984536,0.001833388924534024
-6.836543204037832,0.0018536326344929226
-6.8273488760911265,0.0018741744672747564
-6.818154548144422,0.0018950351895836853
-6.808960220197717,0.0019162354866354304
-6.7997658922510125,0.001937795921792368
-6.790571564304307,0.001959736898520883
-6.781377236357603,0.0019820786247200066
-6.7721829084108975,0.002004841079457689
-6.762988580464193,0.0020280439821408983
-6.753794252517488,0.0020517067641351097
-6.7445999245707835,0.002075848542841282
-6.735405596624078,0.00210048809823024
-6.726211268677374,0.002125643851828803
-6.717016940730669,0.002151333848146463
-6.707822612783963,0.002177575738526764
-6.698628284837259,0.0022043867674025816
-6.689433956890554,0.002231783760932038
-6.680239628943849,0.002259783117986288
-6.671045300997144,0.002288400803457477
-6.66185097305044,0.0023176523438496795
-6.652656645103734,0.00234755282511203
-6.64346231715703,0.0023781168926655274
-6.634267989210325,0.002409358753569824
-6.62507366126362,0.0024412921807676997
-6.615879333316915,0.0024739305193351257
-6.606685005370211,0.002507286694656022
-6.597490677423505,0.0025413732224267745
-6.588296349476801,0.0025762022203841646
-6.579102021530096,0.002611785421634342
-6.569907693583391,0.0026481341894452424
-6.560713365636686,0.0026852595333468256
-6.551519037689982,0.002723172126366296
-6.542324709743276,0.0027618823232047228
-6.533130381796572,0.002801400179142763
-6.523936053849867,0.002841735469442431
-6.514741725903162,0.002882897708991269
-6.505547397956457,0.0029248961719153177
-6.496353070009753,0.0029677399108672354
-6.487158742063047,0.0030114377756784625
-6.477964414116343,0.003055998431045001
-6.468770086169638,0.0031014303729031078
-6.459575758222933,0.0031477419431360093
-6.450381430276228,0.0031949413422435358
-6.441187102329524,0.0032430366395977727
-6.4319927743828185,0.0032920357809039812
-6.422798446436114,0.0033419465924854415
-6.413604118489409,0.003392776782014537
-6.404409790542704,0.0034445339353197497
-6.395215462595999,0.00349722550891157
-6.386021134649295,0.0035508588178869453
-6.3768268067025895,0.0036054410188951394
-6.367632478755884,0.003660979087874343
-6.35843815080918,0.003717479792302019
-6.349243822862475,0.0037749496577391853
-6.34004949491577,0.003833394928491536
-6.330855166969065,0.0038928215222583207
-6.3216608390223605,0.003953234978691579
-6.312466511075655,0.004014640401845367
-6.303272183128951,0.004077042396554436
-6.294077855182246,0.0041404449988464015
-6.284883527235541,0.0042048516005575645
-6.275689199288836,0.004270264868392708
-6.266494871342132,0.0043366866577391385
-6.257300543395426,0.004404117921618671
-6.248106215448722,0.004472558615232748
-6.238911887502017,0.004542007596628811
-6.229717559555312,0.004612462524086872
-6.220523231608607,0.004683919750894688
-6.211328903661903,0.00475637421824588
-6.202134575715197,0.004829819347058992
-6.192940247768493,0.004904246929573664
-6.183745919821788,0.004979647021633582
-6.174551591875083,0.005056007836613634
-6.165357263928378,0.005133315641989329
-6.156162935981674,0.005211554659581303
-6.146968608034968,0.0052907069705316
-6.137774280088264,0.0053707524260874495
-6.128579952141559,0.00545166856527572
-6.119385624194854,0.005533430540550114
-6.110191296248149,0.005616011052482075
-6.100996968301445,0.0056993802945461015
-6.091802640354739,0.005783505909017644
-6.082608312408035,0.00586835295496224
-6.07341398446133,0.0059538838892403915
-6.064219656514625,0.006040058561393668
-6.05502532856792,0.006126834223203192
-6.045831000621216,0.006214165553632563
-6.03663667267451,0.006302004699775446
-6.027442344727805,0.0063903013343303144
-6.018248016781101,0.006479002730017111
-6.0090536888343955,0.0065680538512368535
-5.999859360887691,0.0066573974631553914
-5.990665032940986,0.00674697425826494
-5.9814707049942815,0.006836723000348469
-5.972276377047576,0.006926580685635645
-5.963082049100872,0.007016482720804976
-5.9538877211541665,0.007106363117346063
-5.944693393207462,0.007196154701660164
-5.935499065260757,0.007285789340138373
-5.9263047373140525,0.007375198178323065
-5.917110409367347,0.007464311893125423
-5.907916081420643,0.007553060956946003
-5.898721753473938,0.007641375912424175
-5.889527425527233,0.007729187656426625
-5.880333097580528,0.007816427731781197
-5.8711387696338235,0.00790302862516357
-5.861944441687118,0.007988924069458472
-5.852750113740414,0.008074049348841041
-5.843555785793709,0.008158341604760123
-5.834361457847004,0.00824174014095407
-5.825167129900299,0.008324186725592457
-5.815972801953595,0.008405625888612408
-5.806778474006889,0.008486005212309253
-5.797584146060185,0.008565275613246902
-5.78838981811348,0.008643391613572225
-5.779195490166775,0.008720311599854327
-5.77000116222007,0.008795998067618478
-5.760806834273366,0.008870417849810231
-5.75161250632666,0.008943542327503919
-5.742418178379956,0.00901534762126354
-5.733223850433251,0.009085814761670589
-5.724029522486546,0.009154929837653585
-5.714835194539841,0.00922268412138463
-5.705640866593137,0.009289074168652484
-5.696446538646431,0.0093541018937735
-5.687252210699726,0.009417774618263777
-5.678057882753022,0.009480105092665576
-5.668863554806316,0.0095411114910972
-5.659669226859612,0.009600817378276175
-5.650474898912907,0.009659251648951131
-5.641280570966202,0.009716448439864186
-5.632086243019497,0.009772447014554516
-5.622891915072793,0.009827291621499583
-5.6136975871260875,0.009881031326276875
-5.604503259179383,0.009933719818609387
-5.595308931232678,0.009985415195333868
-5.586114603285973,0.010036179720500856
-5.576920275339268,0.01008607956397578
-5.567725947392564,0.010135184520063312
-5.5585316194458585,0.010183567707816654
-5.549337291499154,0.010231305254824257
-5.540142963552449,0.010278475966381343
-5.5309486356057445,0.01032516098205691
-5.521754307659039,0.010371443421753527
-5.512559979712335,0.010417408023429624
-5.5033656517656295,0.010463140774709953
-5.494171323818925,0.010508728540648517
-5.48497699587222,0.010554258689931161
-5.4757826679255155,0.0105998187218099
-5.46658833997881,0.010645495896049295
-5.457394012032106,0.010691376868136114
-5.448199684085401,0.010737547331958676
-5.439005356138696,0.010784091672098851
-5.429811028191991,0.010831092627804389
-5.4206167002452865,0.010878630970614225
-5.411422372298581,0.010926785197504748
-5.402228044351877,0.010975631241303536
-5.393033716405172,0.011025242199985467
-5.383839388458467,0.011075688086323126
-5.374645060511762,0.011127035599210109
-5.365450732565058,0.0111793479178143
-5.356256404618352,0.011232684519550385
-5.347062076671647,0.011287101022686305
-5.337867748724943,0.011342649054220577
-5.328673420778237,0.011399376143486364
-5.319479092831533,0.011457325641756732
-5.310284764884828,0.011516536667943856
-5.301090436938123,0.011577044080305304
-5.291896108991418,0.011638878473894408
-5.282701781044714,0.011702066203320134
