Values,Density
-8.431671022348569,1.2956519730711324e-7
-8.423835100477422,1.308790285731165e-7
-8.415999178606276,1.335238176414233e-7
-8.408163256735131,1.375190313568364e-7
-8.400327334863984,1.4289404053069443e-7
-8.392491412992838,1.4968823645877816e-7
-8.384655491121691,1.5795118715744572e-7
-8.376819569250546,1.677428327906405e-7
-8.3689836473794,1.7913371976041592e-7
-8.361147725508253,1.9220527391894393e-7
-8.353311803637107,2.0705011125055073e-7
-8.345475881765962,2.2377238657889098e-7
-8.337639959894815,2.4248817952210455e-7
-8.329804038023669,2.6332591625266577e-7
-8.321968116152522,2.86426827339481e-7
-8.314132194281378,3.1194544010404446e-7
-8.306296272410231,3.4005010476900743e-7
-8.298460350539084,3.7092355294199297e-7
-8.290624428667938,4.0476348785178917e-7
-8.282788506796793,4.417832037417746e-7
-8.274952584925646,4.822122342956758e-7
-8.2671166630545,5.26297026834377e-7
-8.259280741183353,5.743016414788693e-7
-8.251444819312209,6.265084722956171e-7
-8.243608897441062,6.832189886896156e-7
-8.235772975569915,7.447544939087614e-7
-8.227937053698769,8.114568980227554e-7
-8.220101131827624,8.836895024899594e-7
-8.212265209956477,9.618377923570343e-7
-8.204429288085331,1.0463102332186613e-6
-8.196593366214184,1.1375390686074738e-6
-8.18875744434304,1.235981113428819e-6
-8.180921522471893,1.3421185397185023e-6
-8.173085600600746,1.45645964887706e-6
-8.1652496787296,1.579539626653725e-6
-8.157413756858455,1.7119212740689116e-6
-8.149577834987308,1.8541957099778728e-6
-8.141741913116162,2.006983038469021e-6
-8.133905991245015,2.1709329749197747e-6
-8.12607006937387,2.3467254249336317e-6
-8.118234147502724,2.5350710083441854e-6
-8.110398225631577,2.736711522214447e-6
-8.10256230376043,2.9524203348046908e-6
-8.094726381889286,3.183002703476142e-6
-8.08689046001814,3.4292960090854044e-6
-8.079054538146993,3.6921698979549894e-6
-8.071218616275846,3.972526324852281e-6
-8.0633826944047,4.27129948778551e-6
-8.055546772533555,4.589455646850484e-6
-8.047710850662408,4.9279928189902705e-6
-8.039874928791262,5.2879403403304284e-6
-8.032039006920115,5.670358287601781e-6
-8.02420308504897,6.076336751674439e-6
-8.016367163177824,6.506994953434293e-6
-8.008531241306677,6.963480196437539e-6
-8.00069531943553,7.446966646961839e-6
-7.992859397564385,7.958653935847713e-6
-7.9850234756932394,8.499765573942268e-6
-7.977187553822093,9.071547176416625e-6
-7.969351631950947,9.6752644884587e-6
-7.961515710079801,1.0312201208501526e-5
-7.953679788208655,1.09836566036625e-5
-7.945843866337508,1.1690942913536602e-5
-7.938007944466363,1.2435382539646212e-5
-7.930172022595216,1.321830501792862e-5
-7.9223361007240705,1.4041043772881814e-5
-7.914500178852924,1.4904932653603481e-5
-7.906664256981778,1.5811302251429954e-5
-7.898828335110632,1.67614760021187e-5
-7.890992413239486,1.7756766074539373e-5
-7.883156491368339,1.8798469050835924e-5
-7.875320569497194,1.988786140296665e-5
-7.867484647626047,2.1026194772682735e-5
-7.8596487257549015,2.221469106344887e-5
-7.851812803883755,2.3454537352936462e-5
-7.843976882012609,2.4746880638024278e-5
-7.836140960141463,2.6092822424193546e-5
-7.828305038270317,2.7493413173404957e-5
-7.82046911639917,2.894964662567283e-5
-7.812633194528025,3.0462454011248932e-5
-7.804797272656878,3.2032698171836514e-5
-7.7969613507857325,3.366116760992067e-5
-7.789125428914586,3.534857048834747e-5
-7.78128950704344,3.709552860122118e-5
-7.773453585172294,3.890257134137867e-5
-7.765617663301148,4.0770129687652847e-5
-7.757781741430001,4.269853024012338e-5
-7.749945819558856,4.468798932827107e-5
-7.742109897687709,4.673860722227523e-5
-7.7342739758165635,4.885036247489962e-5
-7.726438053945417,5.1023106424931994e-5
-7.71860213207427,5.325655789148573e-5
-7.710766210203125,5.555029809113437e-5
-7.702930288331978,5.7903765808350644e-5
-7.6950943664608324,6.031625285091646e-5
-7.687258444589686,6.278689982174251e-5
-7.67942252271854,6.531469223850905e-5
-7.671586600847394,6.78984570315292e-5
-7.663750678976248,7.053685945143358e-5
-7.655914757105101,7.322840041477582e-5
-7.648078835233956,7.597141431823357e-5
-7.640242913362809,7.876406734775481e-5
-7.6324069914916635,8.160435631008201e-5
-7.624571069620517,8.44901080112332e-5
-7.616735147749371,8.741897920580294e-5
-7.608899225878225,9.038845713835045e-5
-7.601063304007079,9.339586069646117e-5
-7.593227382135932,9.643834219344796e-5
-7.585391460264787,9.95128897950631e-5
-7.57755553839364,0.00010261633060299358
-7.5697196165224945,0.00010574533440536535
-7.561883694651348,0.00010889641810089704
-7.554047772780202,0.00011206595080122178
-7.546211850909056,0.00011525015961208473
-7.53837592903791,0.00011844513609222647
-7.530540007166763,0.00012164684338353575
-7.522704085295618,0.0001248511240055125
-7.514868163424471,0.00012805370830076086
-7.5070322415533255,0.00013125022351778573
-7.499196319682179,0.00013443620351146152
-7.491360397811033,0.00013760709904062475
-7.483524475939887,0.00014075828863645713
-7.475688554068741,0.00014388509001459025
-7.467852632197594,0.00014698277199885366
-7.460016710326449,0.000150046566922208
-7.452180788455302,0.00015307168346794355
-7.4443448665841565,0.00015605331991082935
-7.43650894471301,0.00015898667771472143
-7.428673022841864,0.00016186697544281776
-7.420837100970718,0.00016468946293177796
-7.413001179099572,0.0001674494356809983
-7.4051652572284254,0.00017014224940520382
-7.39732933535728,0.0001727633346982455
-7.389493413486133,0.00017530821175307243
-7.3816574916149875,0.000177772505083453
-7.373821569743841,0.00018015195819094296
-7.365985647872695,0.0001824424481212956
-7.358149726001549,0.00018463999985318604
-7.350313804130402,0.00018674080046323597
-7.3424778822592565,0.0001887412130112901
-7.33464196038811,0.00019063779009059734
-7.326806038516964,0.0001924272869886991
-7.318970116645818,0.00019410667440620676
-7.311134194774672,0.00019567315068224635
-7.303298272903525,0.00019712415347717765
-7.29546235103238,0.00019845737086490766
-7.287626429161233,0.0001996707517911369
-7.2797905072900875,0.00020076251585400881
-7.271954585418941,0.00020173116236934312
-7.264118663547795,0.00020257547868301145
-7.256282741676649,0.00020329454769881222
-7.248446819805503,0.00020388775459169456
-7.240610897934356,0.00020435479268104994
-7.232774976063211,0.0002046956684419682
-7.224939054192064,0.00020491070563628474
-7.2171031323209185,0.00020500054854925018
-7.209267210449772,0.00020496616432180226
-7.201431288578626,0.00020480884437212008
-7.19359536670748,0.00020453020490418094
-7.185759444836334,0.00020413218650552488
-7.177923522965187,0.000203617052839623
-7.170087601094042,0.00020298738844291408
-7.162251679222895,0.00020224609563973019
-7.1544157573517495,0.00020139639059236613
-7.146579835480603,0.0002004417985071857
-7.138743913609457,0.00019938614802036264
-7.130907991738311,0.00019823356479125014
-7.123072069867165,0.00019698846433302292
-7.1152361479960184,0.0001956555441139391
-7.107400226124873,0.0001942397749652362
-7.099564304253726,0.0001927463918327461
-7.0917283823825805,0.00019118088391345805
-7.083892460511434,0.00018954898421793967
-7.076056538640288,0.00018785665860252074
-7.068220616769142,0.000186110094315981
-7.060384694897996,0.00018431568810623996
-7.0525487730268495,0.00018248003393386532
-7.044712851155704,0.00018060991033887457
-7.036876929284557,0.00017871226750866857
-7.0290410074134115,0.00017679421409345355
-7.021205085542265,0.00017486300381639114
-7.013369163671119,0.00017292602192465296
-7.005533241799973,0.00017099077152681963
-6.997697319928826,0.0001690648598606996
-6.9898613980576805,0.00016715598453560234
-6.982025476186534,0.00016527191978971123
-6.974189554315388,0.00016342050280423234
-6.966353632444242,0.00016160962011130568
-6.958517710573096,0.00015984719413356455
-6.950681788701949,0.00015814116988900184
-6.942845866830804,0.00015649950189481178
-6.935009944959657,0.00015493014129891415
-6.9271740230885115,0.0001534410232690627
-6.919338101217365,0.00015204005466409702
-6.911502179346219,0.00015073510201159875
-6.903666257475073,0.00014953397981256125
-6.895830335603927,0.0001484444391926321
-6.88799441373278,0.00014747415691605207
-6.880158491861635,0.00014663072477712202
-6.872322569990488,0.0001459216393811802
-6.8644866481193425,0.00014535429232516786
-6.856650726248196,0.00014493596078673805
-6.84881480437705,0.0001446737985267895
-6.840978882505904,0.00014457482731160265
-6.833142960634758,0.00014464592875585748
-6.8253070387636114,0.00014489383658862313
-6.817471116892466,0.0001453251293422695
-6.809635195021319,0.00014594622346210135
-6.8017992731501735,0.00014676336683466015
-6.793963351279027,0.00014778263273114087
-6.786127429407881,0.0001490099141608246
-6.778291507536735,0.00015045091862969477
-6.770455585665589,0.00015211116329817004
-6.7626196637944425,0.00015399597053114902
-6.754783741923297,0.00015611046383450476
-6.74694782005215,0.00015845956416931511
-6.7391118981810045,0.0001610479866380795
-6.731275976309858,0.00016388023753434282
-6.723440054438712,0.00016696061174888664
-6.715604132567566,0.0001702931905246891
-6.70776821069642,0.00017388183955353506
-6.6999322888252735,0.00017773020740718048
-6.692096366954128,0.00018184172429550017
-6.684260445082981,0.00018621960114595035
-6.6764245232118355,0.0001908668289964388
-6.668588601340689,0.00019578617869633365
-6.660752679469543,0.0002009802009091035
-6.652916757598397,0.0002064512264103452
-6.64508083572725,0.000212201366675999
-6.6372449138561045,0.00021823251475500127
-6.629408991984958,0.00022454634642020237
-6.621573070113812,0.00023114432159334307
-6.613737148242666,0.00023802768603687144
-6.60590122637152,0.0002451974733090768
-6.598065304500373,0.0002526545069744847
-6.590229382629228,0.00026039940306576623
-6.582393460758081,0.0002684325727894763
-6.5745575388869355,0.00027675422546966436
-6.566721617015789,0.0002853643717223523
-6.558885695144643,0.0002942628268535344
-6.551049773273497,0.0003034492144725282
-6.543213851402351,0.0003129229703122769
-6.535377929531204,0.00032268334624786094
-6.527542007660059,0.00033272941450247697
-6.519706085788912,0.00034306007203162465
-6.5118701639177665,0.0003536740450731553
-6.50403424204662,0.00036456989385193466
-6.496198320175474,0.00037574601742620256
-6.488362398304328,0.00038720065866220104
-6.480526476433182,0.00039893190932289296
-6.4726905545620355,0.00041093771525608797
-6.46485463269089,0.00042321588166607024
-6.457018710819743,0.00043576407845321
-6.4491827889485975,0.0004485798456042994
-6.441346867077451,0.00046166059861674213
-6.433510945206305,0.00047500363393901575
-6.425675023335159,0.0004886061344093046
-6.417839101464013,0.0005024651746742964
-6.4100031795928665,0.000516577726569895
-6.402167257721721,0.0005309406644452041
-6.394331335850574,0.0005455507704120689
-6.3864954139794285,0.0005604047395015193
-6.378659492108282,0.0005754991847100111
-6.370823570237136,0.0005908306419176925
-6.36298764836599,0.0006063955746620883
-6.355151726494844,0.000622190378751571
-6.3473158046236975,0.000638211386702838
-6.339479882752552,0.0006544548719885387
-6.331643960881405,0.0006709170530816843
-6.32380803901026,0.000687594097284978
-6.315972117139113,0.000704482124333865
-6.308136195267967,0.0007215772097646025
-6.300300273396821,0.0007388753880390172
-6.292464351525674,0.0007563726554194343
-6.2846284296545285,0.000774064972589621
-6.276792507783382,0.0007919482670184151
-6.268956585912236,0.0008100184350648208
-6.26112066404109,0.0008282713438252154
-6.253284742169944,0.0008467028327251138
-6.245448820298797,0.0008653087148596991
-6.237612898427652,0.0008840847780894831
-6.229776976556505,0.000903026785898877
-6.2219410546853595,0.0009221304780279187
-6.214105132814213,0.0009413915708885632
-6.206269210943067,0.0009608057577795163
-6.198433289071921,0.0009803687089147517
-6.190597367200775,0.0010000760712826299
-6.1827614453296285,0.0010199234683548125
-6.174925523458483,0.0010399064996647889
-6.167089601587336,0.0010600207402778877
-6.1592536797161905,0.0010802617401764348
-6.151417757845044,0.0011006250235836082
-6.143581835973898,0.0011211060882525808
-6.135745914102752,0.0011417004047474186
-6.127909992231606,0.0011624034157427538
-6.1200740703604595,0.0011832105353723702
-6.112238148489314,0.0012041171486538958
-6.104402226618167,0.0012251186110217634
-6.0965663047470215,0.0012462102479967423
-6.088730382875875,0.001267387355024012
-6.080894461004729,0.001288645197510289
-6.073058539133583,0.0013099790110906728
-6.065222617262437,0.0013313840021565524
-6.0573866953912905,0.001352855348674983
-6.049550773520145,0.001374388201329714
-6.041714851648998,0.0013959776850144111
-6.033878929777853,0.001417618900706491
-6.026043007906706,0.0014393069277509052
-6.01820708603556,0.0014610368265813075
-6.010371164164414,0.0014828036419052212
-6.002535242293268,0.001504602406379442
-5.9946993204221215,0.0015264281447994674
-5.986863398550976,0.0015482758788267293
-5.979027476679829,0.001570140632274935
-5.971191554808684,0.0015920174369760216
-5.963355632937537,0.0016139013392436037
-5.955519711066391,0.0016357874069514175
-5.947683789195245,0.0016576707372407892
-5.939847867324099,0.0016795464648701498
-5.9320119454529525,0.001701409771217412
-5.924176023581806,0.0017232558939430011
-5.91634010171066,0.001745080137320153
-5.908504179839514,0.0017668778832354397
-5.900668257968368,0.0017886446028608123
-5.8928323360972215,0.0018103758689950941
-5.884996414226076,0.0018320673690706418
-5.877160492354929,0.0018537149188173375
-5.8693245704837835,0.0018753144765736723
-5.861488648612637,0.0018968621582309553
-5.853652726741491,0.0019183542527943364
-5.845816804870345,0.0019397872385398755
-5.837980882999199,0.001961157799744581
-5.8301449611280525,0.0019824628439622013
-5.822309039256907,0.0020036995198142882
-5.81447311738576,0.0020248652352624855
-5.8066371955146145,0.002045957676324213
-5.798801273643468,0.0020669748261902578
-5.790965351772322,0.0020879149846994537
-5.783129429901176,0.002108776788121167
-5.77529350803003,0.0021295592291937313
-5.7674575861588835,0.002150261677362167
-5.759621664287738,0.0021708838991556616
-5.751785742416591,0.002191426078641869
-5.743949820545446,0.002211888837890766
-5.736113898674299,0.0022322732573790676
-5.728277976803153,0.0022525808962610677
-5.720442054932007,0.0022728138124308555
-5.712606133060861,0.002292974582296505
-5.7047702111897145,0.0023130663201854328
-5.696934289318569,0.002333092697296946
-5.689098367447422,0.002353057960116714
-5.681262445576277,0.0023729669482064238
-5.67342652370513,0.0023928251112792284
-5.665590601833984,0.002412638525472799
-5.657754679962838,0.0024324139087294524
-5.649918758091692,0.002452158635193491
-5.6420828362205455,0.0024718807485367734
-5.6342469143494,0.002491588974123323
-5.626410992478253,0.002511292729926104
-5.618575070607108,0.0025310021361102455
-5.610739148735961,0.002550728023200227
-5.602903226864815,0.002570481938750639
-5.595067304993669,0.0025902761524441067
-5.587231383122523,0.0026101236595442133
-5.5793954612513765,0.0026300381826354306
-5.57155953938023,0.0026500341715873926
-5.563723617509084,0.0026701268016869166
-5.555887695637938,0.002690331969886755
-5.548051773766792,0.002710666289127712
-5.5402158518956455,0.0027311470806969185
-5.5323799300245,0.002751792364594101
-5.524544008153353,0.0027726208478843755
-5.5167080862822075,0.002793651911026049
-5.508872164411061,0.0028149055921697294
-5.501036242539915,0.0028364025694349922
-5.493200320668769,0.0028581641411797275
-5.485364398797623,0.0028802122042877066
-5.4775284769264765,0.0029025692305086684
-5.469692555055331,0.002925258240896654
-5.461856633184184,0.002948302778400285
-5.454020711313039,0.002971726878670585
-5.446184789441892,0.002995555039160322
-5.438348867570746,0.003019812186598806
-5.4305129456996,0.0030445236429357883
-5.422677023828454,0.0030697150898563886
-5.4148411019573075,0.003095412531978644
-5.407005180086162,0.0031216422588518696
-5.399169258215015,0.003148430805883085
-5.39133333634387,0.003175804914325134
-5.383497414472723,0.0032037914904660056
-5.375661492601577,0.0032324175641654344
-5.367825570730431,0.003261710246888474
-5.359989648859285,0.0032916966893907877
-5.3521537269881385,0.0033224040392127643
-5.344317805116993,0.0033538593981418206
-5.336481883245846,0.0033860897798034693
-5.328645961374701,0.0034191220675422827
-5.320810039503554,0.003452982972752144
-5.312974117632408,0.0034876989938142982
-5.305138195761262,0.0035232963757982384
-5.297302273890116,0.003559801071076873
-5.2894663520189695,0.003597238701002154
-5.281630430147824,0.0036356345187819094
-5.273794508276677,0.00367501337369154
-5.265958586405532,0.0037153996767464066
-5.258122664534385,0.0037568173679522476
-5.250286742663239,0.003799289885241559
-5.242450820792093,0.0038428401351935882
-5.234614898920947,0.0038874904656247882
-5.2267789770498005,0.003933262640125021
-5.218943055178654,0.003980177814603214
-5.211107133307508,0.0040282565158932925
-5.203271211436362,0.0040775186224588
-5.195435289565216,0.004127983347221906
-5.1875993676940695,0.004179669222528739
-5.179763445822924,0.004232594087251322
-5.171927523951777,0.004286775076011612
-5.164091602080632,0.004342228610502225
-5.156255680209485,0.004398970392865154
-5.148419758338339,0.004457015401077399
-5.140583836467193,0.00451637788628266
-5.132747914596047,0.00457707137199556
-5.1249119927249005,0.00463910865509621
-5.117076070853755,0.004702501808523489
-5.109240148982608,0.004767262185566594
-5.101404227111463,0.004833400425648348
-5.093568305240316,0.0049009264614863195
-5.08573238336917,0.004969849527514111
-5.077896461498024,0.005040178169440307
-5.070060539626878,0.005111920254820755
-5.0622246177557315,0.005185082984518592
-5.054388695884586,0.005259672904925633
-5.046552774013439,0.005335695920821559
-5.038716852142294,0.005413157308748228
-5.030880930271147,0.005492061730782094
-5.023045008400001,0.005572413248591319
-5.015209086528855,0.005654215337671676
-5.007373164657709,0.005737470901662276
-4.9995372427865625,0.005822182286650724
-4.991701320915417,0.005908351295387226
-4.98386539904427,0.0059959792013374105
-4.976029477173125,0.006085066762514639
-4.968193555301978,0.006175614235045305
-4.960357633430832,0.006267621386432252
-4.952521711559686,0.006361087508495011
-4.94468578968854,0.0064560114299785365
-4.9368498678173935,0.00655239152883576
-4.929013945946248,0.006650225744202227
-4.921178024075101,0.0067495115880948885
-4.913342102203956,0.006850246156879628
-4.905506180332809,0.0069524261425651995
-4.897670258461663,0.007056047843992076
-4.889834336590517,0.007161107177997259
-4.881998414719371,0.007267599690645363
-4.874162492848225,0.007375520568625721
-4.866326570977078,0.007484864650923536
-4.858490649105932,0.007595626440879519
-4.850654727234786,0.007707800118758636
-4.84281880536364,0.007821379554950894
-4.8349828834924935,0.007936358323931133
-4.827146961621348,0.008052729719104186
-4.819311039750201,0.008170486768661084
-4.811475117879056,0.008289622252569073
-4.803639196007909,0.008410128720813434
-4.795803274136763,0.008531998513002587
-4.787967352265617,0.008655223779439815
-4.780131430394471,0.008779796503754347
-4.7722955085233245,0.00890570852717358
-4.764459586652179,0.009032951574503713
-4.756623664781032,0.009161517281871697
-4.748787742909887,0.009291397226264382
-4.74095182103874,0.009422582956883037
-4.733115899167594,0.00955506602831169
-4.725279977296448,0.009688838035478034
-4.717444055425302,0.009823890650363874
-4.7096081335541555,0.009960215660399585
-4.70177221168301,0.010097805008455637
-4.693936289811863,0.010236650834319619
-4.686100367940718,0.010376745517524983
-4.678264446069571,0.01051808172137395
-4.670428524198425,0.010660652437974283
-4.662592602327279,0.010804451034086579
-4.654756680456133,0.010949471297557906
-4.6469207585849865,0.011095707484094785
-4.639084836713841,0.011243154364111257
-4.631248914842694,0.011391807269366843
-4.623412992971549,0.011541662139093689
-4.615577071100402,0.01169271556529745
-4.607741149229256,0.011844964836901239
