Values,Density
-5.884982383617396,3.044427401011074e-7
-5.879323973685038,3.026174471010279e-7
-5.873665563752681,3.037669711047908e-7
-5.868007153820323,3.0788718996532793e-7
-5.862348743887965,3.1499532737733205e-7
-5.8566903339556085,3.25129886014075e-7
-5.851031924023251,3.383506674004e-7
-5.845373514090893,3.547388764402193e-7
-5.839715104158535,3.743973098768727e-7
-5.834056694226178,3.9745062635487827e-7
-5.8283982842938205,4.2404569680631887e-7
-5.822739874361463,4.543520341626639e-7
-5.817081464429106,4.885622990336014e-7
-5.811423054496748,5.268928810475693e-7
-5.80576464456439,5.695845533004729e-7
-5.800106234632033,6.169031974423422e-7
-5.794447824699676,6.691405975700615e-7
-5.788789414767318,7.266153002338793e-7
-5.783131004834961,7.896735381707209e-7
-5.777472594902603,8.586902151830333e-7
-5.771814184970245,9.340699478610492e-7
-5.766155775037888,1.0162481626774245e-6
-5.760497365105531,1.1056922438190675e-6
-5.754838955173173,1.2029027278981363e-6
-5.749180545240815,1.3084145414898884e-6
-5.743522135308458,1.4227982783610038e-6
-5.7378637253761005,1.5466615087278424e-6
-5.732205315443743,1.6806501191291012e-6
-5.726546905511386,1.825449673947821e-6
-5.720888495579028,1.9817867951410495e-6
-5.71523008564667,2.150430552433358e-6
-5.709571675714313,2.332193858478604e-6
-5.703913265781956,2.5279348603369275e-6
-5.698254855849598,2.738558321798692e-6
-5.69259644591724,2.9650169860397004e-6
-5.686938035984883,3.208312912221078e-6
-5.681279626052525,3.4694987767682362e-6
-5.675621216120168,3.749679128725201e-6
-5.669962806187811,4.050011590947295e-6
-5.664304396255453,4.371707996484223e-6
-5.658645986323095,4.716035448884917e-6
-5.652987576390738,5.0843172966581664e-6
-5.6473291664583805,5.4779340093323754e-6
-5.641670756526023,5.898323943992999e-6
-5.636012346593665,6.346983990512291e-6
-5.630353936661308,6.825470082625512e-6
-5.62469552672895,7.335397562576742e-6
-5.6190371167965925,7.878441386501792e-6
-5.613378706864236,8.456336157851665e-6
-5.607720296931878,9.070875975339377e-6
-5.60206188699952,9.723914083743053e-6
-5.596403477067163,1.0417362312176441e-5
-5.590745067134805,1.1153190290162933e-5
-5.585086657202448,1.1933424425203528e-5
-5.579428247270091,1.2760146633287225e-5
-5.573769837337733,1.363549280680395e-5
-5.568111427405375,1.4561651009977329e-5
-5.562453017473017,1.5540859391417815e-5
-5.5567946075406605,1.6575403800740793e-5
-5.551136197608303,1.766761510251652e-5
-5.545477787675945,1.8819866176156188e-5
-5.539819377743588,2.0034568595140743e-5
-5.53416096781123,2.1314168977999703e-5
-5.5285025578788725,2.2661145005445143e-5
-5.522844147946516,2.4078001098789322e-5
-5.517185738014158,2.5567263756891322e-5
-5.5115273280818,2.713147654927932e-5
-5.505868918149443,2.877319476529477e-5
-5.500210508217085,3.049497972111505e-5
-5.494552098284728,3.229939272774351e-5
-5.48889368835237,3.4188988724013786e-5
-5.483235278420013,3.616630958376186e-5
-5.477576868487655,3.823387710334149e-5
-5.471918458555297,4.03941856830692e-5
-5.4662600486229405,4.2649694714805286e-5
-5.460601638690583,4.500282069018957e-5
-5.454943228758225,4.7455929049876376e-5
-5.449284818825868,5.00113257904688e-5
-5.44362640889351,5.2671248854506674e-5
-5.4379679989611525,5.54378593261586e-5
-5.432309589028796,5.831323246069603e-5
-5.426651179096438,6.129934857684307e-5
-5.42099276916408,6.439808384291678e-5
-5.415334359231722,6.761120099207192e-5
-5.409675949299365,7.09403400012301e-5
-5.404017539367008,7.438700877218868e-5
-5.39835912943465,7.795257385598015e-5
-5.392700719502293,8.163825126105166e-5
-5.387042309569935,8.544509738925374e-5
-5.381383899637577,8.937400014664759e-5
-5.3757254897052205,9.342567027297412e-5
-5.370067079772863,9.760063294058773e-5
-5.364408669840505,0.00010189921967037989
-5.358750259908148,0.00010632156061468221
-5.35309184997579,0.0001108675772583138
-5.3474334400434325,0.00011553697558852605
-5.341775030111075,0.0001203292397839199
-5.336116620178718,0.0001252436264748101
-5.33045821024636,0.00013027915962363404
-5.324799800314002,0.00013543462607675883
-5.319141390381645,0.0001407085718346337
-5.313482980449288,0.00014609929908951705
-5.30782457051693,0.0001516048640737911
-5.302166160584573,0.00015722307576562311
-5.296507750652215,0.0001629514954904947
-5.290849340719857,0.0001687874374591454
-5.2851909307875005,0.0001747279702773762
-5.279532520855143,0.0001807699194591927
-5.273874110922785,0.00018690987097468026
-5.268215700990427,0.00019314417585568865
-5.26255729105807,0.00019946895588156613
-5.2568988811257125,0.00020588011036172743
-5.251240471193355,0.00021237332402744818
-5.245582061260998,0.00021894407603936317
-5.23992365132864,0.00022558765011468015
-5.234265241396282,0.00023229914576973444
-5.228606831463925,0.00023907349067087656
-5.222948421531568,0.00024590545407852764
-5.21729001159921,0.00025278966136752954
-5.211631601666853,0.0002597206095961142
-5.205973191734495,0.0002666926840942368
-5.200314781802137,0.00027370017603553336
-5.19465637186978,0.0002807373009486025
-5.188997961937423,0.00028779821812245816
-5.183339552005065,0.00029487705085105495
-5.177681142072707,0.0003019679074587828
-5.17202273214035,0.0003090649030435041
-5.1663643222079925,0.0003161621818679513
-5.160705912275635,0.0003232539403253255
-5.155047502343278,0.00033033445040197076
-5.14938909241092,0.0003373980835542069
-5.143730682478562,0.00034443933491293743
-5.1380722725462045,0.00035145284772713104
-5.132413862613848,0.0003584334379535296
-5.12675545268149,0.00036537611889606025
-5.121097042749132,0.00037227612579919284
-5.115438632816775,0.000379128940295583
-5.109780222884417,0.00038593031460706093
-5.10412181295206,0.0003926762953988649
-5.098463403019703,0.0003993632471860067
-5.092804993087345,0.0004059878751906023
-5.087146583154987,0.0004125472475509555
-5.08148817322263,0.00041903881678412693
-5.0758297632902725,0.0004254604404058549
-5.070171353357915,0.00043181040061406224
-5.064512943425557,0.0004380874229459311
-5.0588545334932,0.0004442906938218775
-5.053196123560842,0.00045041987689336833
-5.0475377136284845,0.00045647512811704954
-5.041879303696128,0.00046245710948235146
-5.03622089376377,0.0004683670013253486
-5.030562483831412,0.0004742065131678134
-5.024904073899055,0.0004799778930249677
-5.019245663966697,0.00048568393513671263
-5.01358725403434,0.0004913279860774451
-5.007928844101983,0.0004969139492134135
-5.002270434169625,0.0005024462874780155
-4.996612024237267,0.0005079300244484053
-4.990953614304909,0.0005133707437099694
-4.9852952043725525,0.0005187745865064958
-4.979636794440195,0.0005241482476779709
-4.973978384507837,0.0005294989699003482
-4.96831997457548,0.0005348345362435724
-4.962661564643122,0.0005401632610773656
-4.9570031547107645,0.0005454939793567474
-4.951344744778408,0.0005508360343295271
-4.94568633484605,0.0005561992637129083
-4.940027924913692,0.0005615939843933225
-4.934369514981335,0.0005670309757107434
-4.928711105048977,0.0005725214613911983
-4.92305269511662,0.0005780770902007427
-4.917394285184262,0.0005837099153941144
-4.911735875251905,0.0005894323730394439
-4.906077465319547,0.0005952572593014016
-4.900419055387189,0.0006011977067685746
-4.8947606454548325,0.0006072671599139743
-4.889102235522475,0.000613479349779263
-4.883443825590117,0.0006198482679730041
-4.87778541565776,0.0006263881400752295
-4.872127005725402,0.0006331133985410346
-4.8664685957930445,0.0006400386551922163
-4.860810185860688,0.0006471786733881135
-4.85515177592833,0.0006545483399629775
-4.849493365995972,0.0006621626370145817
-4.843834956063614,0.0006700366136263135
-4.838176546131257,0.0006781853576019884
-4.8325181361989,0.0006866239672864097
-4.826859726266542,0.0006953675235432857
-4.821201316334185,0.0007044310619539647
-4.815542906401827,0.0007138295452976786
-4.809884496469469,0.0007235778363676865
-4.8042260865371125,0.0007336906711707426
-4.798567676604755,0.0007441826325534345
-4.792909266672397,0.0007550681242908114
-4.78725085674004,0.0007663613456681314
-4.781592446807682,0.0007780762665783149
-4.7759340368753245,0.0007902266031545148
-4.770275626942967,0.0008028257939479717
-4.76461721701061,0.0008158869766568761
-4.758958807078252,0.000829422965407397
-4.753300397145894,0.0008434462285798459
-4.747641987213537,0.0008579688671705335
-4.74198357728118,0.0008730025936739081
-4.736325167348822,0.0008885587114649536
-4.730666757416465,0.0009046480946597307
-4.725008347484107,0.0009212811684268592
-4.719349937551749,0.0009384678897209633
-4.7136915276193925,0.0009562177284077413
-4.708033117687035,0.0009745396487474408
-4.702374707754677,0.0009934420912039697
-4.696716297822319,0.0010129329545463862
-4.691057887889962,0.001033019578210391
-4.6853994779576045,0.001053708724887979
-4.679741068025247,0.0010750065633165968
-4.67408265809289,0.001096918651241219
-4.668424248160532,0.0011194499185261681
-4.662765838228174,0.0011426046503967714
-4.657107428295817,0.001166386470798213
-4.65144901836346,0.0011907983258604166
-4.645790608431102,0.0012158424674671223
-4.640132198498744,0.0012415204369306898
-4.634473788566387,0.0012678330487839147
-4.628815378634029,0.0012947803747038293
-4.623156968701672,0.0013223617275938725
-4.617498558769315,0.0013505756458548415
-4.611840148836957,0.0013794198778857673
-4.606181738904599,0.0014088913668628134
-4.600523328972242,0.001438986235852301
-4.5948649190398845,0.0014696997733227163
-4.589206509107527,0.0015010264191286059
-4.58354809917517,0.0015329597510462204
-4.577889689242812,0.0015654924719492149
-4.572231279310454,0.001598616397720549
-4.5665728693780965,0.0016323224460014088
-4.56091445944574,0.0016666006258867173
-4.555256049513382,0.0017014400286805755
-4.549597639581024,0.0017368288198319525
-4.543939229648667,0.0017727542321729255
-4.538280819716309,0.0018092025605873797
-4.532622409783952,0.0018461591582399108
-4.526963999851595,0.0018836084344957746
-4.521305589919237,0.0019215338546650488
-4.515647179986879,0.0019599179417020343
-4.509988770054522,0.0019987422799915807
-4.5043303601221645,0.0020379875213499014
-4.498671950189807,0.0020776333933650365
-4.493013540257449,0.0021176587101974717
-4.487355130325092,0.002158041385955115
-4.481696720392734,0.0021987584507503592
-4.4760383104603765,0.002239786069539273
-4.47037990052802,0.0022810995638335987
-4.464721490595662,0.0023226734363659034
-4.459063080663304,0.002364481398778091
-4.453404670730947,0.0024064964023901296
-4.447746260798589,0.002448690672093917
-4.442087850866232,0.002491035743402776
-4.436429440933875,0.0025335025026730403
-4.430771031001517,0.0025760612304977126
-4.425112621069159,0.0026186816482580057
-4.419454211136801,0.0026613329678000087
-4.4137958012044445,0.002703983944188954
-4.408137391272087,0.002746602931475046
-4.402478981339729,0.0027891579413869497
-4.396820571407372,0.0028316167048533037
-4.391162161475014,0.002873946736233555
-4.3855037515426565,0.002916115400122164
-4.3798453416103,0.00295808998057386
-4.374186931677942,0.002999837752580219
-4.368528521745584,0.0030413260556112136
-4.362870111813227,0.003082522369020687
-4.357211701880869,0.003123394389098688
-4.351553291948512,0.0031639101075395895
-4.345894882016154,0.003204037891082009
-4.340236472083797,0.0032437465620641557
-4.334578062151439,0.003283005479626497
-4.328919652219081,0.0033217846212847957
-4.3232612422867245,0.003360054664586996
-4.317602832354367,0.003397787068560182
-4.311944422422009,0.003434954154649408
-4.306286012489652,0.003471529186844123
-4.300627602557294,0.003507486450685186
-4.2949691926249365,0.0035428013308473785
-4.28931078269258,0.003577450386987528
-4.283652372760222,0.0036114114275562943
-4.277993962827864,0.003644663581269773
-4.272335552895506,0.0036771873659478824
-4.266677142963149,0.003708964754429227
-4.261018733030792,0.003739979237283489
-4.255360323098434,0.0037702158820515606
-4.249701913166077,0.003799661388755933
-4.244043503233719,0.0038283041414365546
-4.238385093301361,0.003856134255483359
-4.2327266833690045,0.00388314362055103
-4.227068273436647,0.003909325938861039
-4.221409863504289,0.003934676758712454
-4.215751453571932,0.003959193503044116
-4.210093043639574,0.003982875492911485
-4.2044346337072165,0.004005723965761729
-4.198776223774859,0.004027742088413587
-4.193117813842502,0.004048934964672351
-4.187459403910144,0.004069309637531815
-4.181800993977786,0.0040888750859402285
-4.176142584045429,0.004107642216130641
-4.170484174113072,0.0041256238475401025
-4.164825764180714,0.004142834693366373
-4.159167354248357,0.004159291335834781
-4.153508944315999,0.004175012196270332
-4.147850534383641,0.004190017500095264
-4.142192124451284,0.004204329236892128
-4.136533714518927,0.004217971115696635
-4.130875304586569,0.0042309685157040505
-4.125216894654211,0.004243348432593164
-4.119558484721854,0.004255139420690678
-4.1139000747894965,0.004266371531217462
-4.108241664857139,0.004277076246873215
-4.102583254924782,0.004287286413032029
-4.096924844992424,0.004297036165835201
-4.091266435060066,0.004306360857478982
-4.085608025127709,0.004315296979005777
-4.079949615195352,0.0043238820809169964
-4.074291205262994,0.0043321546919319175
-4.068632795330636,0.004340154236222225
-4.062974385398279,0.00434792094945736
-4.057315975465921,0.004355495793995439
-4.051657565533564,0.004362920373556243
-4.045999155601207,0.004370236847711253
-4.040340745668849,0.004377487846520238
-4.034682335736491,0.004384716385642479
-4.029023925804134,0.0043919657822399216
-4.0233655158717765,0.004399279571984362
-4.017707105939419,0.0044067014274684745
-4.012048696007062,0.0044142750783101765
-4.006390286074704,0.004422044233226367
-4.000731876142346,0.004430052504337822
-3.995073466209989,0.004438343333950158
-3.9894150562776316,0.004446959924041432
-3.983756646345274,0.00445594516866556
-3.9780982364129165,0.004465341589464342
-3.9724398264805587,0.0044751912744596025
-3.9667814165482014,0.004485535820276707
-3.961123006615844,0.004496416277928812
-3.9554645966834863,0.004507873102270168
-3.949806186751129,0.004519946105203538
-3.944147776818771,0.004532674412705192
-3.938489366886414,0.004546096425706697
-3.9328309569540565,0.00456024978485218
-3.9271725470216987,0.004575171339124903
-3.9215141370893414,0.004590897118316145
-3.915855727156984,0.004607462309285863
-3.9101973172246263,0.004624901235945745
-3.904538907292269,0.004643247342870194
-3.898880497359911,0.004662533182425591
-3.893222087427554,0.004682790405284208
-3.8875636774951965,0.0047040497541739916
-3.8819052675628387,0.0047263410606970075
-3.8762468576304814,0.004749693245033255
-3.8705884476981236,0.0047741343183313485
-3.8649300377657663,0.004799691387575169
-3.859271627833409,0.004826390662702654
-3.853613217901051,0.004854257465742546
-3.847954807968694,0.004883316241725951
-3.8422963980363365,0.004913590571122937
-3.8366379881039787,0.004945103183546858
-3.8309795781716214,0.004977875972467885
-3.8253211682392636,0.005011930010672298
-3.8196627583069063,0.00504728556620565
-3.814004348374549,0.0050839621185378965
-3.808345938442191,0.005121978374692951
-3.802687528509834,0.005161352285088466
-3.797029118577476,0.005202101058839968
-3.7913707086451187,0.005244241178289951
-3.7857122987127614,0.005287788412534716
-3.7800538887804036,0.005332757829730818
-3.7743954788480463,0.005379163807978646
-3.7687370689156885,0.00542702004459345
-3.763078658983331,0.0054763395635917525
-3.757420249050974,0.005527134721236756
-3.751761839118616,0.005579417209507733
-3.7461034291862587,0.005633198057374779
-3.7404450192539014,0.005688487629784833
-3.7347866093215436,0.005745295624283334
-3.7291281993891863,0.005803631065220963
-3.7234697894568285,0.0058635022955172665
-3.717811379524471,0.005924916965975628
-3.712152969592114,0.005987882022170885
-3.706494559659756,0.006052403688952067
-3.7008361497273987,0.00611848745262979
-3.695177739795041,0.00618613804094096
-3.6895193298626836,0.0062553594009081455
-3.6838609199303263,0.006326154674734613
-3.6782025099979685,0.006398526173899088
-3.672544100065611,0.0064724753516379584
-3.666885690133254,0.0065480027740232455
-3.661227280200896,0.00662510808986636
-3.6555688702685387,0.006703789999697176
-3.649910460336181,0.0067840462240866045
-3.6442520504038236,0.006865873471596648
-3.6385936404714663,0.006949267406660531
-3.6329352305391085,0.007034222617705858
-3.627276820606751,0.007120732585847751
-3.6216184106743934,0.007208789654489783
-3.615960000742036,0.007298385000176903
-3.6103015908096787,0.007389508605052557
-3.604643180877321,0.007482149231275031
-3.5989847709449636,0.007576294397750979
-3.5933263610126063,0.00767193035954275
-3.5876679510802485,0.007769042090304112
-3.582009541147891,0.007867613268093545
-3.5763511312155334,0.007967626264907253
-3.570692721283176,0.008069062140263933
-3.5650343113508187,0.008171900639161792
-3.559375901418461,0.008276120194713464
-3.5537174914861036,0.008381697935747565
-3.548059081553746,0.008488609699648354
-3.5424006716213885,0.0085968300506813
-3.536742261689031,0.008706332304032434
-3.5310838517566734,0.008817088555761056
-3.525425441824316,0.008929069718841592
-3.5197670318919583,0.009042245565438908
-3.514108621959601,0.009156584775533974
-3.5084502120272436,0.009272054991981964
-3.502791802094886,0.009388622882055076
-3.4971333921625285,0.009506254205485742
-3.491474982230171,0.009624913888991903
-3.4858165722978134,0.00974456610723036
-3.480158162365456,0.009865174370087682
-3.4744997524330983,0.009986701616179702
-3.468841342500741,0.01010911031239757
-3.4631829325683836,0.010232362559296562
-3.457524522636026,0.01035642020209113
-3.4518661127036685,0.010481244946980914
-3.4462077027713107,0.010606798482498736
-3.4405492928389534,0.01073304260553483
-3.434890882906596,0.010859939351660358
-3.4292324729742383,0.01098745112933907
-3.423574063041881,0.011115540857585895
-3.4179156531095236,0.011244172106602683
-3.412257243177166,0.011373309240892415
-3.4065988332448085,0.011502917564330676
-3.4009404233124507,0.011632963466647262
-3.3952820133800934,0.011763414570752362
-3.389623603447736,0.01189423988032268
-3.3839651935153783,0.012025409927048024
-3.378306783583021,0.012156896916925506
-3.372648373650663,0.012288674874979179
-3.366989963718306,0.012420719787776098
-3.3613315537859485,0.01255300974310583
-3.3556731438535907,0.012685525066189775
-3.3500147339212334,0.012818248451788482
-3.3443563239888756,0.01295116509158134
-3.3386979140565183,0.01308426279620136
-3.333039504124161,0.013217532111318785
-3.327381094191803,0.01335096642718281
-3.321722684259446,0.01348456208104849
-3.3160642743270885,0.013618318451934563
-3.3104058643947307,0.013752238047184787
-3.3047474544623734,0.01388632658032849
-3.2990890445300156,0.014020593039766544
-3.2934306345976583,0.014155049747839023
-3.287772224665301,0.014289712409866083
-3.282113814732943,0.014424600152787233
-3.276455404800586,0.014559735553063691
-3.270796994868228,0.014695144653546164
-3.2651385849358707,0.014830856969053634
-3.2594801750035134,0.014966905480448713
-3.2538217650711556,0.015103326617040344
-3.2481633551387983,0.015240160227188613
-3.242504945206441,0.015377449537031618
-3.236846535274083,0.015515241097299723
-3.231188125341726,0.01565358471822872
-3.225529715409368,0.01579253339262989
-3.2198713054770107,0.015932143207219737
-3.2142128955446534,0.016072473242357693
-3.2085544856122956,0.016213585460385756
-3.2028960756799383,0.016355544582806816
-3.1972376657475805,0.016498417956581655
-3.191579255815223,0.016642275409865764
-3.185920845882866,0.016787189097548668
-3.180262435950508,0.016933233336994438
-3.1746040260181507,0.017080484434422484
-3.1689456160857934,0.017229020502398693
-3.1632872061534356,0.017378921268942738
-3.1576287962210783,0.017530267878787798
-3.1519703862887205,0.017683142687356247
-3.146311976356363,0.01783762904804168
-3.140653566424006,0.017993811093413064
-3.134995156491648,0.018151773510975487
-3.1293367465592907,0.01831160131414363
-3.123678336626933,0.018473379609099012
-3.1180199266945756,0.018637193358217355
-3.1123615167622183,0.018803127140762536
-3.1067031068298605,0.018971264911554903
