Values,Density
-8.23491602448388,1.2871918884937994e-7
-8.22709602199107,1.3003450961834861e-7
-8.219276019498258,1.3268029142032844e-7
-8.211456017005448,1.366761528676097e-7
-8.203636014512638,1.420516710926023e-7
-8.195816012019826,1.4884650098578867e-7
-8.187996009527016,1.5711053341638248e-7
-8.180176007034206,1.6690409353203872e-7
-8.172356004541394,1.7829817829106975e-7
-8.164536002048584,1.913747327553228e-7
-8.156715999555773,2.0622696536576335e-7
-8.148895997062962,2.2295970070196347e-7
-8.141075994570151,2.4168977016958415e-7
-8.133255992077341,2.625464390892951e-7
-8.12543598958453,2.856718699928429e-7
-8.11761598709172,3.1122162058583314e-7
-8.10979598459891,3.3936517646049325e-7
-8.101975982106097,3.702865158106139e-7
-8.094155979613287,4.0418470630132486e-7
-8.086335977120477,4.412745318316258e-7
-8.078515974627665,4.817871478296487e-7
-8.070695972134855,5.259707629157173e-7
-8.062875969642045,5.740913456564467e-7
-8.055055967149233,6.264333533290145e-7
-8.047235964656423,6.833004807388354e-7
-8.039415962163613,7.450164265787595e-7
-8.0315959596708,8.119256736938141e-7
-8.02377595717799,8.843942812392092e-7
-8.01595595468518,9.628106837078487e-7
-8.008135952192369,1.0475864951203784e-6
-8.000315949699559,1.1391573123270549e-6
-7.992495947206748,1.2379835148956797e-6
-7.9846759447139375,1.3445510556352788e-6
-7.9768559422211265,1.4593722380884305e-6
-7.9690359397283155,1.5829864749196268e-6
-7.961215937235505,1.7159610220939415e-6
-7.953395934742694,1.8588916831219606e-6
-7.945575932249883,2.0124034772951065e-6
-7.937755929757073,2.1771512654460406e-6
-7.929935927264262,2.3538203266282092e-6
-7.922115924771451,2.5431268789706876e-6
-7.914295922278641,2.745818537097655e-6
-7.90647591978583,2.9626746996541274e-6
-7.898655917293019,3.1945068578538485e-6
-7.890835914800209,3.4421588188969293e-6
-7.883015912307398,3.706506834837901e-6
-7.875195909814587,3.988459629644366e-6
-7.867375907321777,4.288958315763736e-6
-7.859555904828966,4.608976192348548e-6
-7.851735902336155,4.949518416166735e-6
-7.843915899843345,5.311621537348421e-6
-7.836095897350534,5.696352891462601e-6
-7.828275894857723,6.104809840137815e-6
-7.820455892364913,6.538118851283359e-6
-7.812635889872102,6.997434412396586e-6
-7.8048158873792906,7.483937768313709e-6
-7.79699588488648,7.998835476946036e-6
-7.789175882393669,8.543357775896761e-6
-7.781355879900858,9.11875675347262e-6
-7.773535877408048,9.726304318753405e-6
-7.765715874915237,1.0367289965266483e-5
-7.757895872422426,1.1043018323420332e-5
-7.750075869929616,1.1754806498599129e-5
-7.742255867436805,1.2503981191497923e-5
-7.734435864943994,1.3291875598320322e-5
-7.726615862451183,1.411982609057956e-5
-7.718795859958373,1.4989168673097165e-5
-7.710975857465562,1.5901235222644337e-5
-7.703155854972751,1.685734950768441e-5
-7.695335852479941,1.785882299385963e-5
-7.68751584998713,1.8906950438930207e-5
-7.679695847494319,2.0003005283370304e-5
-7.671875845001509,2.114823484362406e-5
-7.664055842508698,2.234385531676899e-5
-7.656235840015887,2.3591046606579163e-5
-7.648415837523077,2.4890946982111285e-5
-7.640595835030266,2.6244647582596408e-5
-7.632775832537455,2.7653186782074495e-5
-7.6249558300446445,2.9117544430432322e-5
-7.6171358275518335,3.0638635987617104e-5
-7.6093158250590225,3.2217306570919875e-5
-7.601495822566212,3.3854324934302384e-5
-7.593675820073401,3.555037740248109e-5
-7.58585581758059,3.730606178252763e-5
-7.57803581508778,3.912188127755726e-5
-7.570215812594969,4.099823842727704e-5
-7.562395810102158,4.293542910375689e-5
-7.554575807609348,4.4933636588456683e-5
-7.546755805116537,4.699292576062922e-5
-7.538935802623726,4.911323742623486e-5
-7.531115800130916,5.1294382817301636e-5
-7.523295797638105,5.3536038293804404e-5
-7.515475795145294,5.583774027799102e-5
-7.507655792652484,5.8198880454421583e-5
-7.499835790159673,6.0618701265940196e-5
-7.492015787666862,6.309629173889704e-5
-7.484195785174052,6.563058366781081e-5
-7.476375782681241,6.822034819182294e-5
-7.46855578018843,7.086419279288617e-5
-7.46073577769562,7.356055874561517e-5
-7.452915775202809,7.630771904764983e-5
-7.445095772709998,7.910377685878874e-5
-7.437275770217187,8.194666447426668e-5
-7.429455767724376,8.483414285811314e-5
-7.421635765231565,8.776380175851573e-5
-7.413815762738755,9.073306042739612e-5
-7.405995760245944,9.37391689628266e-5
-7.398175757753133,9.67792102904777e-5
-7.390355755260323,9.985010279963975e-5
-7.382535752767512,0.00010294860364433445
-7.374715750274701,0.00010607131271914236
-7.366895747781891,0.0001092146773155429
-7.35907574528908,0.00011237499746200637
-7.351255742796269,0.00011554843194739456
-7.343435740303459,0.00011873100502484118
-7.335615737810648,0.0001219186137890781
-7.327795735317837,0.00012510703621794374
-7.319975732825027,0.0001282919398638933
-7.312155730332216,0.000131468891179837
-7.304335727839405,0.00013463336545858668
-7.296515725346595,0.00013778075736284832
-7.288695722853784,0.00014090639201915943
-7.280875720360973,0.00014400553664527488
-7.2730557178681625,0.0001470734126790517
-7.2652357153753515,0.00015010520837145463
-7.2574157128825405,0.00015309609180580008
-7.24959571038973,0.00015604122430071818
-7.241775707896919,0.00015893577415332242
-7.233955705404108,0.00016177493067503611
-7.226135702911298,0.00016455391847203238
-7.218315700418487,0.00016726801191930749
-7.210495697925676,0.00016991254977560648
-7.202675695432866,0.0001724829498857064
-7.194855692940055,0.00017497472391542635
-7.187035690447244,0.00017738349206199676
-7.179215687954434,0.00017970499768527656
-7.171395685461623,0.00018193512180173996
-7.163575682968812,0.0001840698973844604
-7.155755680476002,0.0001861055234137288
-7.147935677983191,0.0001880383786211316
-7.14011567549038,0.00018986503487354155
-7.13229567299757,0.00019158227014258716
-7.124475670504759,0.00019318708100765853
-7.116655668011948,0.00019467669464261856
-7.108835665519138,0.00019604858023787412
-7.101015663026327,0.00019730045981193427
-7.093195660533516,0.00019843031836969593
-7.0853756580407055,0.00019943641336697899
-7.0775556555478945,0.0002003172834446794
-7.0697356530550834,0.00020107175639792188
-7.061915650562273,0.0002016989563507882
-7.054095648069462,0.00020219831010949386
-7.046275645576651,0.00020256955267104878
-7.038455643083841,0.0002028127318687207
-7.03063564059103,0.00020292821213897154
-7.022815638098219,0.00020291667739912684
-7.014995635605409,0.0002027791330284556
-7.007175633112598,0.00020251690695039263
-6.999355630619787,0.00020213164981648874
-6.991535628126977,0.00020162533429754059
-6.983715625634166,0.00020100025349102657
-6.975895623141355,0.00020025901845794648
-6.968075620648545,0.0001994045549049998
-6.960255618155734,0.00019844009903330698
-6.952435615662923,0.00019736919257632053
-6.944615613170113,0.00019619567705427953
-6.936795610677302,0.00019492368727453638
-6.928975608184491,0.0001935576441106021
-6.9211556056916805,0.0001921022465943209
-6.9133356031988695,0.00019056246335884177
-6.9055156007060585,0.00018894352347159204
-6.897695598213248,0.0001872509066973534
-6.889875595720437,0.00018549033323449551
-6.882055593227626,0.00018366775296726166
-6.874235590734816,0.00018178933427803311
-6.866415588242005,0.00017986145246442608
-6.858595585749194,0.00017789067780607862
-6.850775583256384,0.0001758837633251461
-6.842955580763573,0.0001738476322854345
-6.835135578270762,0.00017178936547369156
-6.827315575777952,0.0001697161883053278
-6.819495573285141,0.00016763545779602002
-6.81167557079233,0.00016555464944009073
-6.80385556829952,0.00016348134403287168
-6.796035565806709,0.00016142321447422132
-6.788215563313898,0.0001593880125879757
-6.780395560821088,0.00015738355598856994
-6.772575558328277,0.00015541771502602898
-6.764755555835466,0.00015349839983583476
-6.756935553342656,0.00015163354751932716
-6.749115550849845,0.00014983110947631995
-6.741295548357034,0.00014809903890998814
-6.733475545864223,0.00014644527852120115
-6.7256555433714125,0.00014487774840612772
-6.7178355408786015,0.000143404334169114
-6.7100155383857905,0.0001420328752602413
-6.70219553589298,0.00014077115354354294
-6.694375533400169,0.0001396268821009846
-6.686555530907358,0.0001386076942736167
-6.678735528414548,0.00013772113294030844
-6.670915525921737,0.0001369746400316221
-6.663095523428926,0.00013637554627576962
-6.655275520936116,0.0001359310611708962
-6.647455518443305,0.0001356482631770517
-6.639635515950494,0.00013553409012108473
-6.631815513457684,0.00013559532980479856
-6.623995510964873,0.0001358386108083285
-6.616175508472062,0.00013627039347860297
-6.608355505979252,0.00013689696109411668
-6.600535503486441,0.00013772441119599748
-6.59271550099363,0.00013875864707710902
-6.58489549850082,0.00014000536942082933
-6.577075496008009,0.0001414700680824198
-6.569255493515198,0.00014315801400652597
-6.5614354910223875,0.00014507425127718897
-6.5536154885295765,0.00014722358929661382
-6.5457954860367655,0.0001496105950921224
-6.537975483543955,0.0001522395857521024
-6.530155481051144,0.00015511462099426603
-6.522335478558333,0.00015823949587214208
-6.514515476065523,0.00016161773362734135
-6.506695473572712,0.00016525257869911105
-6.498875471079901,0.0001691469899040407
-6.491055468587091,0.0001733036338028098
-6.48323546609428,0.00017772487827260892
-6.475415463601469,0.00018241278630759875
-6.467595461108659,0.00018736911007189057
-6.459775458615848,0.00019259528523270057
-6.451955456123037,0.00019809242560385205
-6.444135453630227,0.0002038613181329944
-6.436315451137416,0.00020990241826694157
-6.428495448644605,0.0002162158457336789
-6.420675446151795,0.0002228013807803299
-6.412855443658984,0.0002296584609089037
-6.405035441166173,0.00023678617815392228
-6.397215438673363,0.00024418327694549196
-6.389395436180552,0.0002518481526055409
-6.381575433687741,0.0002597788505227733
-6.3737554311949305,0.00026797306605495915
-6.3659354287021195,0.00027642814520556936
-6.3581154262093085,0.00028514108612300243
-6.350295423716498,0.00029410854146913034
-6.342475421223687,0.00030332682170353033
-6.334655418730876,0.00031279189932871456
-6.326835416238066,0.00032249941413966957
-6.319015413745255,0.00033244467951852597
-6.311195411252444,0.00034262268981423774
-6.303375408759634,0.00035302812884258723
-6.295555406266823,0.00036365537953943834
-6.287735403774012,0.0003744985347970656
-6.279915401281202,0.000385551409507428
-6.272095398788391,0.0003968075538348752
-6.26427539629558,0.00040826026773269184
-6.25645539380277,0.0004199026167153678
-6.248635391309959,0.0004317274488918274
-6.240815388817148,0.0004437274132591942
-6.232995386324338,0.0004558949792510932
-6.225175383831527,0.0004682224575275779
-6.217355381338716,0.0004807020219880896
-6.209535378845906,0.0004933257329811307
-6.2017153763530946,0.0005060855616784274
-6.1938953738602835,0.0005189734155737131
-6.186075371367473,0.0005319811650592046
-6.178255368874662,0.0005451006710262465
-6.170435366381851,0.0005583238134283284
-6.162615363889041,0.0005716425207387253
-6.15479536139623,0.000585048800226888
-6.146975358903419,0.0005985347689709266
-6.139155356410609,0.0006120926855175854
-6.131335353917798,0.0006257149820924699
-6.123515351424987,0.0006393942972588658
-6.115695348932177,0.0006531235089156423
-6.107875346439366,0.0006668957675202026
-6.100055343946555,0.0006807045294157854
-6.092235341453745,0.0006945435901377364
-6.084415338960934,0.0007084071175689629
-6.076595336468123,0.0007222896848103151
-6.068775333975313,0.0007361863026271815
-6.060955331482502,0.0007500924513321988
-6.053135328989691,0.0007640041119595759
-6.045315326496881,0.0007779177965857944
-6.03749532400407,0.0007918305776497295
-6.029675321511259,0.0008057401161241785
-6.0218553190184485,0.0008196446883925735
-6.0140353165256375,0.0008335432116829196
-6.0062153140328265,0.000847435267915102
-5.998395311540016,0.0008613211258182815
-5.990575309047205,0.0008752017611794034
-5.982755306554394,0.0008890788750868786
-5.974935304061584,0.0009029549100388681
-5.967115301568773,0.0009168330637909835
-5.959295299075962,0.0009307173008240802
-5.951475296583152,0.0009446123613201787
-5.943655294090341,0.000958523767543182
-5.93583529159753,0.0009724578275279918
-5.92801528910472,0.0009864216359923303
-5.920195286611909,0.0010004230723952767
-5.912375284119098,0.0010144707960769179
-5.904555281626288,0.0010285742384254322
-5.896735279133477,0.0010427435920287486
-5.888915276640666,0.0010569897967826454
-5.881095274147856,0.0010713245229371495
-5.873275271655045,0.001085760151079479
-5.865455269162234,0.001100309749063686
-5.857635266669424,0.0011149870459123009
-5.849815264176613,0.0011298064027296531
-5.841995261683802,0.001144782780680584
-5.8341752591909914,0.001159931706104571
-5.82635525669818,0.0011752692328485608
-5.818535254205369,0.001190811901917329
-5.810715251712559,0.0012065766985558807
-5.802895249219748,0.0012225810068913078
-5.795075246726937,0.0012388425622771114
-5.787255244234127,0.00125537940149727
-5.779435241741316,0.001272209810998967
-5.771615239248505,0.0012893522733392105
-5.763795236755695,0.0013068254120396593
-5.755975234262884,0.001324647935058187
-5.748155231770073,0.001342838577096084
-5.740335229277263,0.001361416040969525
-5.732515226784452,0.0013803989382838826
-5.724695224291641,0.0013998057296575736
-5.71687522179883,0.0014196546647495065
-5.70905521930602,0.0014399637223500555
-5.701235216813209,0.0014607505508006284
-5.693415214320398,0.0014820324090108698
-5.685595211827588,0.0015038261083443367
-5.677775209334777,0.001526147955645131
-5.669955206841966,0.0015490136976771167
-5.6621352043491555,0.001572438467246448
-5.6543152018563445,0.0015964367312736394
-5.6464951993635335,0.0016210222410781988
-5.638675196870723,0.0016462079851319099
-5.630855194377912,0.00167200614452921
-5.623035191885101,0.0016984280514148447
-5.615215189392291,0.0017254841505976674
-5.60739518689948,0.0017531839645682102
-5.599575184406669,0.0017815360621242318
-5.591755181913859,0.001810548030793815
-5.583935179421048,0.0018402264532299123
-5.576115176928237,0.0018705768877333886
-5.568295174435427,0.0019016038530429433
-5.560475171942616,0.0019333108175118778
-5.552655169449805,0.001965700192770994
-5.544835166956995,0.001998773331956191
-5.537015164464184,0.002032530532557519
-5.529195161971373,0.002066971043924193
-5.521375159478563,0.0021020930794376407
-5.513555156985752,0.0021378938333402155
-5.505735154492941,0.002174369502185441
-5.497915152000131,0.002211515310850976
-5.49009514950732,0.0022493255430319618
-5.482275147014509,0.0022877935761099234
-5.4744551445216985,0.0023269119202685446
-5.4666351420288875,0.002366672261705138
-5.458815139536076,0.0024070655097655734
-5.450995137043266,0.002448081847807827
-5.443175134550455,0.002489710787580459
-5.435355132057644,0.002531941226881748
-5.427535129564834,0.0025747615102480227
-5.419715127072023,0.0026181594924025546
-5.411895124579212,0.0026621226041809486
-5.404075122086402,0.002706637920634765
-5.396255119593591,0.0027516922310032643
-5.38843511710078,0.002797272110232462
-5.38061511460797,0.0028433639917112585
-5.372795112115159,0.0028899542408882027
-5.364975109622348,0.002937029229426854
-5.357155107129538,0.0029845754095545914
-5.349335104636727,0.0030325793882589307
-5.341515102143916,0.00308102800098537
-5.333695099651106,0.003129908384494815
-5.325875097158295,0.0031792080485422655
-5.318055094665484,0.0032289149460455876
-5.3102350921726735,0.003279017541422315
-5.3024150896798625,0.00332950487678196
-5.2945950871870515,0.0033803666356744247
-5.286775084694241,0.0034315932041084594
-5.27895508220143,0.0034831757285699993
-5.271135079708619,0.003535106170787242
-5.263315077215809,0.003587377359007474
-5.255495074722998,0.0036399830355703443
-5.247675072230187,0.003692917900583785
-5.239855069737377,0.003746177651528748
-5.232035067244566,0.003799759018643439
-5.224215064751755,0.0038536597959592835
-5.216395062258945,0.003907878867885282
-5.208575059766134,0.003962416231260757
-5.200755057273323,0.00401727301282088
-5.192935054780513,0.004072451482043373
-5.185115052287702,0.004127955059367503
-5.177295049794891,0.004183788319801885
-5.169475047302081,0.004239956991957902
-5.16165504480927,0.004296467952570137
-5.153835042316459,0.00435332921658429
-5.146015039823649,0.004410549922915161
-5.138195037330838,0.004468140315995713
-5.130375034838027,0.004526111723255875
-5.1225550323452165,0.004584476528687032
-5.1147350298524055,0.004643248142663587
-5.1069150273595945,0.004702440968205713
-5.099095024866784,0.004762070363880729
-5.091275022373973,0.004822152603550865
-5.083455019881162,0.00488270483318339
-5.075635017388352,0.004943745024948118
-5.067815014895541,0.0050052919288308545
-5.05999501240273,0.0050673650219974
-5.05217500990992,0.005129984456144198
-5.044355007417109,0.005193171003072535
-5.036535004924298,0.0052569459987233565
-5.028715002431488,0.005321331285907275
-5.020894999938677,0.005386349155961327
-5.013074997445866,0.0054520222895591925
-5.005254994953056,0.005518373696896615
-4.997434992460245,0.005585426657466539
-4.989614989967434,0.00565320465963119
-4.981794987474624,0.005721731340190181
-4.973974984981813,0.005791030424134955
-4.966154982489002,0.005861125664770225
-4.9583349799961915,0.0059320407843739065
-4.9505149775033805,0.006003799415556622
-4.9426949750105695,0.006076425043472669
-4.934874972517759,0.006149940949023951
-4.927054970024948,0.006224370153188923
-4.919234967532137,0.006299735362599268
-4.911414965039327,0.006376058916478621
-4.903594962546516,0.006453362735048403
-4.895774960053705,0.006531668269498499
-4.887954957560895,0.006610996453614311
-4.880134955068084,0.006691367657143631
-4.872314952575273,0.006772801640983061
-4.864494950082463,0.006855317514257904
-4.856674947589652,0.006938933693366021
-4.848854945096841,0.0070236678630535045
-4.841034942604031,0.007109536939587216
-4.83321494011122,0.0071965570360884605
-4.825394937618409,0.00728474343009168
-4.817574935125599,0.007374110533391375
-4.809754932632788,0.007464671864242678
-4.801934930139977,0.0075564400219808895
-4.794114927647167,0.007649426664128604
-4.786294925154356,0.0077436424860599755
-4.778474922661545,0.0078390972032952
-4.7706549201687345,0.007935799536500343
-4.7628349176759235,0.008033757199270297
-4.7550149151831125,0.008132976888775192
-4.747194912690302,0.008233464279353005
-4.739374910197491,0.008335224019132174
-4.73155490770468,0.008438259729770322
-4.723734905211869,0.00854257400939461
-4.715914902719059,0.00864816843883004
-4.708094900226248,0.00875504359120032
-4.700274897733437,0.008863199044983082
-4.692454895240627,0.008972633400599932
-4.684634892747816,0.009083344300614624
-4.676814890255005,0.009195328453609002
-4.668994887762195,0.00930858166179752
-4.661174885269384,0.00942309885243406
-4.653354882776573,0.009538874113052919
-4.645534880283763,0.009655900730575859
-4.637714877790952,0.00977417123430348
-4.629894875298141,0.009893677442794485
-4.622074872805331,0.010014410514621132
-4.61425487031252,0.010136361002972197
-4.606434867819709,0.01025951891405532
-4.598614865326899,0.010383873769232835
-4.5907948628340876,0.010509414670803166
-4.5829748603412765,0.010636130371319084
-4.575154857848466,0.010764009346312184
-4.567334855355655,0.010893039870269712
-4.559514852862844,0.011023210095686797
-4.551694850370034,0.01115450813499396
-4.543874847877223,0.011286922145136439
-4.536054845384412,0.01142044041455741
-4.528234842891602,0.01155505145231622
-4.520414840398791,0.0116907440790485
-4.51259483790598,0.011827507519454423
-4.50477483541317,0.011965331495980652
-4.496954832920359,0.012104206323341566
-4.489134830427548,0.01224412300350847
-4.481314827934738,0.012385073320777332
-4.473494825441927,0.012527049936512689
-4.465674822949116,0.012670046483151419
-4.457854820456306,0.012814057657039975
-4.450034817963495,0.01295907930967001
-4.442214815470684,0.013105108536871708
-4.434394812977874,0.013252143765520003
-4.426574810485063,0.013400184837308562
-4.418754807992252,0.013549233089147458
-4.4109348054994415,0.013699291429745568
