Values,Density
-8.215626163438722,1.4994667255074923e-7
-8.208202466974175,1.5424308291711597e-7
-8.200778770509626,1.6068700110782874e-7
-8.193355074045078,1.6935287273922572e-7
-8.18593137758053,1.8033770320113884e-7
-8.178507681115983,1.9376175203200674e-7
-8.171083984651434,2.0976935953542775e-7
-8.163660288186886,2.285299064291868e-7
-8.156236591722339,2.5023890680431204e-7
-8.148812895257791,2.751192367672628e-7
-8.141389198793242,3.0342249707215885e-7
-8.133965502328694,3.354305113528744e-7
-8.126541805864147,3.714569598578521e-7
-8.119118109399597,4.118491469390362e-7
-8.11169441293505,4.569899024337021e-7
-8.104270716470502,5.072996152599707e-7
-8.096847020005955,5.632383967280052e-7
-8.089423323541405,6.25308370735822e-7
-8.081999627076858,6.940560884904912e-7
-8.07457593061231,7.700750618150343e-7
-8.06715223414776,8.540084110442159e-7
-8.059728537683213,9.465516213058578e-7
-8.052304841218666,1.0484553989997814e-6
-8.044881144754118,1.1605286212162946e-6
-8.037457448289569,1.2836413682687509e-6
-8.030033751825021,1.418728027377525e-6
-8.022610055360474,1.5667904571525781e-6
-8.015186358895926,1.7289011969845447e-6
-8.007762662431377,1.906206707938396e-6
-8.00033896596683,2.0999306269142703e-6
-7.992915269502281,2.311377016159244e-6
-7.985491573037733,2.5419335881043947e-6
-7.978067876573185,2.793074882596284e-6
-7.970644180108637,3.0663653741991315e-6
-7.963220483644089,3.363462482638274e-6
-7.955796787179541,3.6861194601775678e-6
-7.948373090714993,4.036188126158545e-6
-7.940949394250445,4.415621418508899e-6
-7.933525697785897,4.826475729345983e-6
-7.926102001321349,5.270912990767984e-6
-7.918678304856801,5.751202475344237e-6
-7.911254608392253,6.2697222745844786e-6
-7.903830911927705,6.828960416506262e-6
-7.896407215463157,7.431515583744552e-6
-7.888983518998609,8.080097391665198e-6
-7.881559822534061,8.777526185694585e-6
-7.874136126069513,9.526732316365253e-6
-7.866712429604965,1.0330754850561199e-5
-7.859288733140416,1.1192739677720262e-5
-7.851865036675869,1.2115936969523712e-5
-7.84444134021132,1.3103697953170072e-5
-7.837017643746773,1.4159470958482849e-5
-7.829593947282224,1.528679670129542e-5
-7.822170250817677,1.6489302767399867e-5
-7.814746554353128,1.7770697262798132e-5
-7.807322857888581,1.9134761599768572e-5
-7.799899161424032,2.0585342390953745e-5
-7.792475464959484,2.2126342426495495e-5
-7.785051768494936,2.376171071524942e-5
-7.777628072030388,2.549543157339242e-5
-7.77020437556584,2.7331512750036237e-5
-7.762780679101292,2.927397258517062e-5
-7.755356982636744,3.132682619939615e-5
-7.747933286172196,3.3494070723387014e-5
-7.740509589707648,3.577966958016182e-5
-7.7330858932431,3.818753584119115e-5
-7.7256621967785515,4.07215146836868e-5
-7.718238500314004,4.338536498600665e-5
-7.7108148038494555,4.618274010416423e-5
-7.703391107384908,4.911716788162483e-5
-7.6959674109203595,5.219202995361549e-5
-7.688543714455812,5.54105404135417e-5
-7.6811200179912635,5.877572392035471e-5
-7.673696321526716,6.229039333255967e-5
-7.666272625062168,6.595712696273737e-5
-7.658848928597619,6.97782455564731e-5
-7.651425232133072,7.375578910582842e-5
-7.644001535668523,7.78914936163562e-5
-7.636577839203976,8.218676795338463e-5
-7.629154142739427,8.66426709003618e-5
-7.62173044627488,9.125988856882507e-5
-7.614306749810331,9.603871230387008e-5
-7.606883053345784,0.00010097901723520823
-7.599459356881235,0.00010608024162761347
-7.592035660416687,0.00011134136718664572
-7.584611963952139,0.00011676090048002522
-7.577188267487591,0.00012233685563316308
-7.569764571023043,0.0001280667384604365
-7.562340874558495,0.00013394753219046762
-7.554917178093947,0.00013997568494202462
-7.547493481629399,0.0001461470991043108
-7.540069785164851,0.00015245712276914895
-7.532646088700303,0.0001589005433580105
-7.525222392235754,0.00016547158357725546
-7.517798695771207,0.00017216389982853495
-7.510374999306658,0.00017897058318921445
-7.502951302842111,0.00018588416306740234
-7.495527606377562,0.00019289661362273912
-7.488103909913015,0.00019999936303096745
-7.4806802134484665,0.00020718330565475812
-7.473256516983919,0.00021443881716760697
-7.4658328205193705,0.0002217557726593867
-7.458409124054822,0.00022912356773689344
-7.4509854275902745,0.00023653114261006775
-7.443561731125726,0.0002439670091392912
-7.4361380346611785,0.0002514192807960697
-7.42871433819663,0.0002588757054709182
-7.4212906417320825,0.0002663237010413731
-7.413866945267534,0.00027375039359198855
-7.4064432488029865,0.00028114265815810946
-7.399019552338438,0.00028848716184545244
-7.391595855873891,0.0002957704091561351
-7.384172159409342,0.0003029787893345393
-7.376748462944794,0.0003100986255260372
-7.369324766480246,0.0003171162255260502
-7.361901070015698,0.00032401793387799166
-7.35447737355115,0.00033079018506619075
-7.347053677086602,0.000337419557533759
-7.339629980622054,0.000343892828244579
-7.332206284157506,0.0003501970274976257
-7.324782587692958,0.00035631949369311147
-7.31735889122841,0.0003622479277428925
-7.309935194763861,0.0003679704468138329
-7.302511498299314,0.0003734756370885623
-7.295087801834765,0.00037875260522990395
-7.287664105370218,0.0003837910282345428
-7.280240408905669,0.00038858120136735057
-7.272816712441122,0.00039311408387384186
-7.265393015976573,0.0003973813421761681
-7.257969319512026,0.00040137539026970787
-7.250545623047477,0.0004050894270500975
-7.243121926582929,0.0004085174703157002
-7.235698230118381,0.0004116543872082039
-7.228274533653833,0.0004144959208725041
-7.220850837189285,0.0004170387131394414
-7.213427140724737,0.0004192803230562703
-7.2060034442601895,0.0004212192411150381
-7.198579747795641,0.000422854899055216
-7.1911560513310935,0.00042418767514210143
-7.183732354866545,0.0004252188948523604
-7.176308658401997,0.0004259508269265598
-7.168884961937449,0.00042638667477617673
-7.161461265472901,0.0004265305632649638
-7.154037569008353,0.0004263875209122095
-7.146613872543805,0.000425963457597045
-7.139190176079257,0.0004252651378706014
-7.131766479614709,0.00042430015001432633
-7.124342783150161,0.00042307687100828426
-7.116919086685613,0.00042160442760260167
-7.109495390221064,0.00041989265371133316
-7.102071693756517,0.0004179520443708361
-7.094647997291968,0.00041579370653023646
-7.087224300827421,0.0004134293069623495
-7.079800604362872,0.00041087101760120884
-7.072376907898325,0.000408131458633278
-7.064953211433776,0.00040522363968053567
-7.057529514969229,0.00040216089943030317
-7.05010581850468,0.000398956844074462
-7.042682122040132,0.00039562528492955405
-7.035258425575584,0.00039218017561547074
-7.027834729111036,0.0003886355491713525
-7.020411032646488,0.00038500545548938656
-7.01298733618194,0.00038130389944210363
-7.005563639717392,0.0003775447800771145
-6.998139943252844,0.0003737418312411804
-6.990716246788296,0.00036990856398870856
-6.983292550323748,0.0003660582111150029
-6.9758688538591995,0.00036220367413934
-6.968445157394652,0.0003583574730468969
-6.9610214609301035,0.0003545316990773567
-6.953597764465556,0.0003507379708265826
-6.946174068001008,0.0003469873939060883
-6.93875037153646,0.00034329052437686094
-6.931326675071912,0.0003396573361506075
-6.923902978607364,0.00033609719252106554
-6.916479282142816,0.00033261882196090886
-6.909055585678267,0.0003292302982887997
-6.90163188921372,0.00032593902528091703
-6.894208192749171,0.0003227517257708701
-6.886784496284624,0.00031967443524961656
-6.879360799820075,0.0003167124999471742
-6.871937103355528,0.00031387057934591234
-6.864513406890979,0.0003111526530451894
-6.857089710426432,0.000308562031867219
-6.849666013961883,0.00030610137306521026
-6.842242317497336,0.0003037726994665653
-6.834818621032787,0.0003015774223577086
-6.827394924568239,0.0002995163678918035
-6.819971228103691,0.00029758980677702454
-6.812547531639143,0.0002957974869819274
-6.805123835174595,0.00029413866917323006
-6.797700138710047,0.0002926121645857038
-6.790276442245499,0.0002912163750065193
-6.782852745780951,0.00028994933454506294
-6.775429049316403,0.0002888087528461654
-6.768005352851855,0.00028779205939924793
-6.7605816563873065,0.0002868964485880088
-6.753157959922759,0.00028611892512261233
-6.7457342634582105,0.0002854563494973372
-6.738310566993663,0.0002849054831160283
-6.7308868705291145,0.0002844630327349454
-6.723463174064567,0.00028412569387840925
-6.7160394776000185,0.000283890192892617
-6.708615781135471,0.0002837533273150582
-6.7011920846709225,0.00028371200425238163
-6.693768388206374,0.0002837632764750124
-6.6863446917418266,0.00028390437595602475
-6.678920995277278,0.00028413274460379473
-6.671497298812731,0.00028444606195892827
-6.664073602348182,0.00028484226965144743
-6.656649905883635,0.00028531959243979776
-6.649226209419086,0.00028587655568049555
-6.641802512954539,0.0002865119991050137
-6.63437881648999,0.00028722508681090775
-6.626955120025442,0.00028801531340234485
-6.619531423560894,0.0002888825062474995
-6.612107727096346,0.0002898268238492249
-6.604684030631798,0.00029084875035684243
-6.59726033416725,0.0002919490862779428
-6.589836637702702,0.0002931289354772583
-6.582412941238154,0.000294389688581434
-6.574989244773606,0.0002957330029344611
-6.567565548309058,0.0002971607792782195
-6.560141851844509,0.00029867513535691836
-6.552718155379962,0.00030027837666996016
-6.545294458915413,0.0003019729646192987
-6.537870762450866,0.0003037614823202077
-6.530447065986317,0.00030564659836133587
-6.52302336952177,0.0003076310288179229
-6.515599673057221,0.00030971749783615526
-6.508175976592674,0.0003119086971184355
-6.5007522801281254,0.0003142072446489022
-6.493328583663577,0.00031661564300537043
-6.4859048871990295,0.0003191362376080385
-6.478481190734481,0.0003217711752560859
-6.4710574942699335,0.0003245223633031209
-6.463633797805385,0.00032739142981758756
-6.4562101013408375,0.0003303796850669914
-6.448786404876289,0.0003334880846565594
-6.4413627084117415,0.00033671719464032496
-6.433939011947193,0.00034006715890781344
-6.426515315482645,0.00034353766913289285
-6.419091619018097,0.0003471279375529615
-6.411667922553549,0.00035083667282337014
-6.404244226089001,0.0003546620591715413
-6.396820529624453,0.00035860173904816994
-6.389396833159905,0.0003626527994470552
-6.381973136695357,0.0003668117620379899
-6.374549440230809,0.00037107457722768133
-6.367125743766261,0.00037543662223368107
-6.359702047301713,0.00037989270322702495
-6.352278350837165,0.00038443706156716245
-6.344854654372616,0.0003890633841232838
-6.337430957908069,0.0003937648176448594
-6.33000726144352,0.00039853398711366117
-6.322583564978973,0.0004033630179805306
-6.315159868514424,0.00040824356216169347
-6.307736172049877,0.00041316682764027226
-6.300312475585328,0.00041812361149482565
-6.292888779120781,0.0004231043361498348
-6.285465082656232,0.0004280990886221072
-6.278041386191684,0.00043309766251445716
-6.270617689727136,0.0004380896024909691
-6.263193993262588,0.000443064250950364
-6.25577029679804,0.0004480107966002059
-6.248346600333492,0.0004529183246240209
-6.240922903868944,0.0004577758681230361
-6.233499207404396,0.00046257246050825096
-6.2260755109398485,0.00046729718851639876
-6.2186518144753,0.0004719392455192244
-6.211228118010752,0.0004764879848003068
-6.203804421546204,0.00048093297247552496
-6.196380725081656,0.0004852640397412387
-6.188957028617108,0.0004894713341428837
-6.18153333215256,0.0004935453695681948
-6.174109635688012,0.0004974770746826061
-6.166685939223464,0.0005012578395405889
-6.159262242758916,0.0005048795601236167
-6.151838546294368,0.0005083346805742251
-6.144414849829819,0.0005116162329172167
-6.136991153365272,0.0005147178740791623
-6.129567456900723,0.0005176339200412012
-6.122143760436176,0.0005203593769832031
-6.114720063971627,0.0005228899693004115
-6.10729636750708,0.0005252221643992566
-6.099872671042531,0.000527353194201427
-6.092448974577984,0.000529281073310567
-6.085025278113435,0.0005310046138180759
-6.077601581648887,0.000532523436748561
-6.070177885184339,0.0005338379801655482
-6.062754188719791,0.0005349495039804544
-6.055330492255243,0.0005358600915258693
-6.047906795790695,0.0005365726479728203
-6.040483099326147,0.0005370908956877397
-6.033059402861599,0.0005374193666399414
-6.025635706397051,0.0005375633919824513
-6.018212009932503,0.0005375290889406484
-6.0107883134679545,0.0005373233451522914
-6.003364617003407,0.0005369538006082045
-5.9959409205388585,0.0005364288273503638
-5.988517224074311,0.0005357575070850905
-5.9810935276097625,0.0005349496068710706
-5.973669831145215,0.0005340155530419548
-5.966246134680667,0.00053296640352022
-5.958822438216119,0.0005318138186753175
-5.951398741751571,0.000530570030873926
-5.943975045287022,0.0005292478128634988
-5.936551348822475,0.0005278604451214274
-5.929127652357926,0.0005264216822952056
-5.921703955893379,0.0005249457188475255
-5.91428025942883,0.0005234471540103564
-5.906856562964283,0.0005219409561422923
-5.899432866499734,0.000520442426571472
-5.892009170035187,0.0005189671629960355
-5.884585473570638,0.0005175310225029664
-5.87716177710609,0.0005161500842565392
-5.869738080641542,0.0005148406118967302
-5.862314384176994,0.0005136190156803215
-5.854890687712446,0.0005125018143876114
-5.847466991247898,0.0005115055970121574
-5.84004329478335,0.0005106469842441272
-5.832619598318802,0.0005099425897530582
-5.825195901854254,0.0005094089812733224
-5.817772205389706,0.0005090626414927454
-5.810348508925158,0.0005089199287458233
-5.80292481246061,0.0005089970375115188
-5.795501115996061,0.0005093099587222434
-5.788077419531514,0.0005098744398900311
-5.7806537230669655,0.0005107059450652242
-5.773230026602418,0.0005118196146480028
-5.7658063301378695,0.0005132302250809816
-5.758382633673322,0.0005149521484616067
-5.7509589372087735,0.0005169993121224709
-5.743535240744226,0.0005193851582389955
-5.7361115442796775,0.0005221226035358219
-5.728687847815129,0.00052522399917624
-5.7212641513505815,0.000528701090930974
-5.713840454886033,0.0005325649797367007
-5.7064167584214855,0.0005368260827664645
-5.698993061956937,0.0005414940951482886
-5.69156936549239,0.0005465779524797612
-5.684145669027841,0.0005520857942987074
-5.676721972563294,0.0005580249286809974
-5.669298276098745,0.0005644017981462565
-5.661874579634197,0.0005712219470617348
-5.654450883169649,0.0005784899907418997
-5.647027186705101,0.0005862095864476134
-5.639603490240553,0.0005943834064923229
-5.632179793776005,0.0006030131136678454
-5.624756097311457,0.0006120993392001225
-5.617332400846909,0.0006216416634473344
-5.609908704382361,0.0006316385995477503
-5.602485007917813,0.0006420875802212941
-5.595061311453264,0.0006529849479204979
-5.587637614988717,0.0006643259485186459
-5.580213918524168,0.0006761047287115601
-5.572790222059621,0.0006883143372959678
-5.565366525595072,0.0007009467304733355
-5.557942829130525,0.000713992781311009
-5.550519132665976,0.0007274422934737748
-5.543095436201429,0.0007412840193195616
-5.53567173973688,0.0007555056824309278
-5.528248043272332,0.0007700940046312874
-5.520824346807784,0.0007850347375115349
-5.513400650343236,0.0008003126984663586
-5.5059769538786885,0.0008159118112151635
-5.49855325741414,0.0008318151507556715
-5.4911295609495925,0.0008480049926709449
-5.483705864485044,0.000864462866684481
-5.4762821680204965,0.0008811696143306048
-5.468858471555948,0.0008981054505804685
-5.4614347750914,0.0009152500292379726
-5.454011078626852,0.000932582511893678
-5.446587382162304,0.0009500816402005386
-5.439163685697756,0.0009677258112103758
-5.431739989233208,0.0009854931554878783
-5.42431629276866,0.0010033616176972782
-5.416892596304112,0.0010213090393371097
-5.409468899839564,0.0010393132432794903
-5.402045203375016,0.0010573521197545892
-5.394621506910467,0.0010754037134063262
-5.38719781044592,0.0010934463110325691
-5.379774113981371,0.0011114585296123497
-5.372350417516824,0.001129419404216089
-5.364926721052275,0.0011473084753865943
-5.357503024587728,0.0011651058755775667
-5.350079328123179,0.001182792414233396
-5.342655631658632,0.001200349661096516
-5.335231935194083,0.0012177600273323916
-5.327808238729536,0.0012350068440672313
-5.320384542264987,0.0012520744379444157
-5.312960845800439,0.0012689482033145655
-5.305537149335891,0.0012856146706889185
-5.298113452871343,0.0013020615711011457
-5.290689756406795,0.0013182778960408297
-5.283266059942247,0.0013342539526409684
-5.275842363477699,0.0013499814138267577
-5.268418667013151,0.001365453363152953
-5.260994970548603,0.0013806643340873084
-5.253571274084055,0.001395610343521923
-5.246147577619507,0.0014102889193259617
-5.238723881154959,0.001424699121781935
-5.231300184690411,0.0014388415587812241
-5.223876488225863,0.0014527183946861644
-5.216452791761315,0.0014663333528002476
-5.209029095296767,0.001479691711423486
-5.201605398832219,0.0014928002935031218
-5.194181702367671,0.0015056674499268168
-5.186758005903123,0.0015183030365403753
-5.179334309438574,0.0015307183850068531
-5.171910612974027,0.0015429262676597
-5.164486916509478,0.001554940856536442
-5.157063220044931,0.001566777676813057
-5.149639523580382,0.001578453554892209
-5.142215827115835,0.0015899865614292952
-5.134792130651286,0.0016013959496105675
-5.127368434186739,0.0016127020890260666
-5.11994473772219,0.0016239263955052565
-5.112521041257642,0.0016350912573094949
-5.105097344793094,0.0016462199580953157
-5.097673648328546,0.0016573365970833451
-5.090249951863998,0.001668466006884117
-5.08282625539945,0.0016796336694458146
-5.075402558934902,0.0016908656306000788
-5.067978862470354,0.0017021884136901554
-5.060555166005806,0.0017136289327698388
-5.053131469541258,0.0017252144058635625
-5.0457077730767095,0.0017369722687760932
-5.038284076612162,0.0017489300899338322
-5.0308603801476135,0.0017611154867324171
-5.023436683683066,0.001773556043852367
-5.0160129872185175,0.001786279233988542
-5.00858929075397,0.001799312341421255
-5.0011655942894215,0.0018126823888339211
-4.993741897824874,0.0018264160677576875
-4.9863182013603256,0.0018405396729949189
-4.978894504895777,0.0018550790413428778
-4.97147080843123,0.0018700594949055387
-4.964047111966681,0.0018855057892461294
-4.956623415502134,0.0019014420665946254
-4.949199719037585,0.0019178918142865493
-4.941776022573038,0.0019348778285671157
-4.934352326108489,0.0019524221838543732
-4.926928629643942,0.001970546207511274
-4.919504933179393,0.001989270460135077
-4.912081236714845,0.0020086147213288167
-4.904657540250297,0.0020285979808770654
-4.897233843785749,0.0020492384352080416
-4.889810147321201,0.0020705534889816565
-4.882386450856653,0.0020925597616064905
-4.874962754392105,0.0021152730984506894
-4.867539057927557,0.0021387085864772257
-4.860115361463009,0.002162880574003656
-4.852691664998461,0.002187802694255744
-4.845267968533912,0.0022134878923614695
-4.837844272069365,0.0022399484554080362
-4.830420575604816,0.002267196045168304
-4.822996879140269,0.0022952417330884597
-4.81557318267572,0.002324096037120388
-4.808149486211173,0.0023537689599756537
-4.8007257897466245,0.002384270028380016
-4.793302093282077,0.0024156083329088304
-4.7858783968175285,0.0024477925679947266
-4.778454700352981,0.0024808310717108033
-4.7710310038884325,0.00251473186495132
-4.763607307423884,0.0025495026896525438
-4.7561836109593365,0.002585151045724171
-4.748759914494788,0.002621684226389991
-4.7413362180302405,0.0026591093516708025
-4.733912521565692,0.0026974333997794005
-4.7264888251011445,0.00273666323623581
-4.719065128636596,0.00277680564055381
-4.711641432172049,0.0028178673303925275
-4.7042177357075,0.0028598549831130972
-4.696794039242952,0.002902775254724573
-4.689370342778404,0.002946634796251163
-4.681946646313856,0.002991440267598137
-4.674522949849308,0.00303719834903812
-4.66709925338476,0.003083915750484642
-4.659675556920212,0.003131599218760007
-4.652251860455664,0.003180255543104405
-4.644828163991116,0.003229891559208258
-4.637404467526568,0.0032805141520828064
-4.629980771062019,0.0033321302581103933
-4.622557074597472,0.00338474686663999
-4.615133378132923,0.003438371021510695
-4.607709681668376,0.0034930098228981264
-4.600285985203827,0.003548670429885367
