Values,Density
-7.021592650279128,2.552666433647266e-7
-7.01379744211447,2.7077971199995776e-7
-7.00600223394981,2.890833134400195e-7
-6.998207025785152,3.10339340378607e-7
-6.990411817620492,3.3473178621956645e-7
-6.9826166094558335,3.6246780403537127e-7
-6.974821401291174,3.9377886089375647e-7
-6.967026193126515,4.2892199129951347e-7
-6.959230984961856,4.681811506812572e-7
-6.951435776797197,5.118686716432119e-7
-6.943640568632538,5.603268238979497e-7
-6.935845360467879,6.139294801699169e-7
-6.92805015230322,6.730838893742597e-7
-6.920254944138561,7.382325581534177e-7
-6.9124597359739015,8.09855241840074e-7
-6.904664527809243,8.884710457346401e-7
-6.896869319644583,9.746406369331995e-7
-6.889074111479925,1.0689685670667304e-6
-6.881278903315265,1.1721057053964978e-6
-6.873483695150607,1.2847517819741805e-6
-6.865688486985947,1.4076580395899763e-6
-6.8578932788212885,1.5416299926490629e-6
-6.850098070656629,1.6875302914221013e-6
-6.84230286249197,1.846281688741569e-6
-6.834507654327311,2.0188701055079417e-6
-6.826712446162652,2.206347791827712e-6
-6.818917237997993,2.409836578246005e-6
-6.811122029833334,2.630531212563514e-6
-6.803326821668675,2.869702775729066e-6
-6.795531613504016,3.1287021695219908e-6
-6.7877364053393565,3.4089636688772185e-6
-6.779941197174698,3.712008529610511e-6
-6.772145989010038,4.0394486424530016e-6
-6.76435078084538,4.392990222159242e-6
-6.75655557268072,4.7744375209239284e-6
-6.748760364516062,5.185696552760348e-6
-6.740965156351402,5.6287788160165955e-6
-6.7331699481867435,6.105804998988648e-6
-6.725374740022084,6.619008652918035e-6
-6.717579531857425,7.170739816204745e-6
-6.709784323692766,7.7634685712695e-6
-6.701989115528107,8.399788516195994e-6
-6.694193907363448,9.082420130557614e-6
-6.686398699198789,9.814214015343124e-6
-6.67860349103413,1.0598153984346659e-5
-6.670808282869471,1.1437359985531394e-5
-6.6630130747048115,1.2335090827446729e-5
-6.655217866540153,1.3294746687521342e-5
-6.647422658375493,1.4319871376327481e-5
-6.639627450210835,1.5414154332405415e-5
-6.631832242046175,1.6581432321215173e-5
-6.624037033881517,1.7825690811042877e-5
-6.616241825716857,1.9151064999290042e-5
-6.6084466175521985,2.0561840460848156e-5
-6.600651409387539,2.2062453391568856e-5
-6.59285620122288,2.365749041898478e-5
-6.585060993058221,2.53516879523746e-5
-6.577265784893562,2.7149931046023014e-5
-6.569470576728903,2.9057251747642565e-5
-6.561675368564244,3.107882690710651e-5
-6.553880160399585,3.321997541964189e-5
-6.546084952234926,3.548615487907608e-5
-6.5382897440702665,3.788295761879192e-5
-6.530494535905608,4.0416106118083654e-5
-6.522699327740948,4.309144775452821e-5
-6.51490411957629,4.591494888339133e-5
-6.50710891141163,4.889268822895303e-5
-6.499313703246972,5.203084957292395e-5
-6.491518495082312,5.5335713728527774e-5
-6.4837232869176535,5.881364979231675e-5
-6.475928078752994,6.24711056664267e-5
-6.468132870588335,6.631459784925582e-5
-6.460337662423676,7.035070049436071e-5
-6.452542454259017,7.458603374186148e-5
-6.444747246094358,7.902725132870325e-5
-6.436952037929699,8.368102748976258e-5
-6.42915682976504,8.855404316428055e-5
-6.421361621600381,9.365297152677705e-5
-6.4135664134357215,9.89844628654455e-5
-6.405771205271063,0.00010455512883546063
-6.397975997106403,0.0001103715261191289
-6.390180788941745,0.00011644013952867745
-6.382385580777085,0.00012276736459225675
-6.374590372612427,0.000129359489668043
-6.366795164447767,0.0001362226776362007
-6.3589999562831085,0.00014336294722123132
-6.351204748118449,0.00015078615400394672
-6.34340953995379,0.00015849797118458464
-6.335614331789131,0.00016650387016272847
-6.327819123624472,0.00017480910100509464
-6.320023915459813,0.00018341867287396778
-6.312228707295154,0.00019233733449390902
-6.304433499130495,0.00020156955473732072
-6.296638290965836,0.00021111950341137775
-6.2888430828011765,0.00022099103233332376
-6.281047874636518,0.0002311876567812881
-6.273252666471858,0.0002417125374116532
-6.2654574583072,0.00025256846273394133
-6.25766225014254,0.00026375783223615314
-6.249867041977882,0.0002752826402541639
-6.242071833813222,0.0002871444606779329
-6.2342766256485636,0.00029934443258936017
-6.226481417483904,0.0003118832469220494
-6.218686209319245,0.0003247611342364152
-6.210891001154586,0.00033797785369767304
-6.203095792989927,0.00035153268334492914
-6.195300584825268,0.00036542441173477436
-6.187505376660609,0.00037965133104026806
-6.17971016849595,0.00039421123168209733
-6.171914960331291,0.0004091013985640865
-6.1641197521666315,0.000424318608980229
-6.156324544001973,0.00043985913225490225
-6.148529335837313,0.00045571873117203864
-6.140734127672655,0.0004718926652425466
-6.132938919507995,0.0004883756958519291
-6.125143711343337,0.0005051620933232397
-6.117348503178677,0.0005222456459226862
-6.109553295014019,0.000539619670826514
-6.101758086849359,0.0005572770270601528
-6.0939628786847,0.000575210130411721
-6.086167670520041,0.0005934109703118577
-6.078372462355382,0.0006118711286653821
-6.070577254190723,0.0006305818006075801
-6.062782046026064,0.0006495338171513057
-6.054986837861405,0.0006687176696805134
-6.047191629696746,0.0006881235362357681
-6.039396421532087,0.0007077413095294555
-6.031601213367428,0.0007275606266178188
-6.023806005202768,0.0007475709001480649
-6.01601079703811,0.0007677613510908114
-6.00821558887345,0.0007881210428581625
-6.000420380708792,0.0008086389167004156
-5.992625172544132,0.0008293038282659333
-5.984829964379474,0.0008501045852020665
-5.977034756214814,0.0008710299856662419
-5.969239548050155,0.000892068857612352
-5.961444339885496,0.0009132100987093387
-5.953649131720837,0.000934442716745143
-5.945853923556178,0.0009557558703636466
-5.938058715391519,0.0009771389099790546
-5.93026350722686,0.0009985814187080562
-5.922468299062201,0.0010200732531586432
-5.914673090897542,0.0010416045839115283
-5.906877882732883,0.0010631659355309839
-5.899082674568223,0.0010847482259395223
-5.891287466403565,0.0011063428049936826
-5.883492258238905,0.0011279414920986695
-5.875697050074247,0.0011495366127018836
-5.867901841909587,0.0011711210335095864
-5.860106633744929,0.0011926881962732866
-5.852311425580269,0.0012142321499992274
-5.8445162174156104,0.0012357475814387363
-5.836721009250951,0.0012572298437236139
-5.828925801086292,0.0012786749830187294
-5.821130592921633,0.0013000797630707203
-5.813335384756974,0.0013214416875414088
-5.805540176592315,0.0013427590200230238
-5.797744968427656,0.0013640308016415713
-5.789949760262997,0.0013852568661666224
-5.782154552098338,0.001406437852555082
-5.7743593439336784,0.0014275752148682035
-5.76656413576902,0.0014486712295136046
-5.75876892760436,0.0014697289997746468
-5.750973719439702,0.0014907524576026898
-5.743178511275042,0.0015117463626603857
-5.735383303110384,0.0015327162986162775
-5.727588094945724,0.0015536686667034644
-5.7197928867810655,0.0015746106765690826
-5.711997678616406,0.0015955503344523628
-5.704202470451747,0.0016164964287432165
-5.696407262287088,0.0016374585129839726
-5.688612054122429,0.0016584468863911767
-5.68081684595777,0.001679472571983611
-5.673021637793111,0.0017005472924167646
-5.665226429628452,0.0017216834436330763
-5.657431221463793,0.0017428940664483798
-5.6496360132991335,0.0017641928162055419
-5.641840805134475,0.001785593930634724
-5.634045596969815,0.0018071121960687338
-5.626250388805157,0.001828762912170219
-5.618455180640497,0.0018505618553340784
-5.610659972475839,0.0018725252409352508
-5.602864764311179,0.0018946696845971653
-5.5950695561465205,0.0019170121626618311
-5.587274347981861,0.0019395699720443534
-5.579479139817202,0.0019623606896598846
-5.571683931652543,0.0019854021316103344
-5.563888723487884,0.0020087123123215256
-5.556093515323225,0.0020323094038191096
-5.548298307158566,0.002056211695331746
-5.540503098993907,0.0020804375534074562
-5.532707890829248,0.002105005382726212
-5.5249126826645885,0.002129933587786806
-5.51711747449993,0.002155240535642127
-5.50932226633527,0.0021809445198499797
-5.501527058170612,0.0022070637257996933
-5.493731850005952,0.0022336161975669566
-5.485936641841294,0.002260619806440819
-5.478141433676634,0.0022880922212561647
-5.4703462255119755,0.002316050880655375
-5.462551017347316,0.002344512967391448
-5.454755809182657,0.002373495384772873
-5.446960601017998,0.0024030147353378897
-5.439165392853339,0.002433087301832993
-5.43137018468868,0.0024637290305566696
-5.423574976524021,0.0024949555171158017
-5.415779768359362,0.0025267819946268796
-5.407984560194703,0.002559223324380515
-5.4001893520300435,0.002592293988972528
-5.392394143865385,0.002626008087889563
-5.384598935700725,0.0026603793355227875
-5.376803727536067,0.0026954210615679347
-5.369008519371407,0.0027311462137555725
-5.361213311206749,0.0027675673628400517
-5.353418103042089,0.0028046967097628897
-5.3456228948774305,0.002842546094890916
-5.337827686712771,0.002881127009217329
-5.330032478548112,0.0029204506074009366
-5.322237270383453,0.0029605277225058756
-5.314442062218794,0.0030013688822947797
-5.306646854054135,0.0030429843269156667
-5.298851645889476,0.0030853840278146707
-5.291056437724817,0.003128577707698206
-5.283261229560158,0.003172574861359686
-5.2754660213954985,0.003217384777180199
-5.26767081323084,0.003263016559107549
-5.25987560506618,0.0033094791489129347
-5.252080396901522,0.0033567813485223252
-5.244285188736862,0.0034049318422189924
-5.236489980572204,0.003453939218511188
-5.228694772407544,0.0035038119914620122
-5.2208995642428855,0.003554558621280634
-5.213104356078226,0.003606187533975895
-5.205309147913567,0.0036587071398819088
-5.197513939748908,0.0037121258508680186
-5.189718731584249,0.003766452096055757
-5.18192352341959,0.0038216943358730833
-5.174128315254931,0.003877861074287125
-5.166333107090272,0.003934960869067458
-5.158537898925613,0.003993002339944707
-5.1507426907609535,0.004051994174543393
-5.142947482596295,0.004111945131980717
-5.135152274431635,0.004172864044041071
-5.127357066266977,0.004234759813849642
-5.119561858102317,0.004297641411987779
-5.111766649937659,0.004361517870008189
-5.103971441772999,0.004426398271328166
-5.0961762336083405,0.004492291739496741
-5.088381025443681,0.004559207423849378
-5.080585817279022,0.00462715448258532
-5.072790609114363,0.004696142063319239
-5.064995400949704,0.0047661792811793495
-5.057200192785045,0.004837275194542606
-5.049404984620386,0.004909438778515376
-5.041609776455727,0.0049826788962871425
-5.033814568291068,0.005057004268501541
-5.0260193601264085,0.0051324234408056685
-5.01822415196175,0.005208944749755102
-5.01042894379709,0.005286576287266672
-5.002633735632432,0.00536532586382559
-4.994838527467772,0.005445200970665216
-4.987043319303114,0.0055262087411516655
-4.979248111138454,0.005608355911612738
-4.9714529029737955,0.0056916487818628085
-4.963657694809136,0.005776093175680019
-4.955862486644477,0.0058616944015001775
-4.948067278479818,0.005948457213594745
-4.940272070315159,0.006036385774003437
-4.9324768621505,0.0061254836154932815
-4.924681653985841,0.006215753605815086
-4.916886445821182,0.006307197913525312
-4.909091237656523,0.00639981797563836
-4.9012960294918635,0.0064936144673675734
-4.893500821327205,0.006588587274206064
-4.885705613162545,0.0066847354665894925
-4.877910404997887,0.006782057277371774
-4.870115196833227,0.006880550082332616
-4.862319988668569,0.006980210383921971
-4.854524780503909,0.007081033798431244
-4.8467295723392505,0.0071830150467641785
-4.838934364174591,0.007286147948963217
-4.831139156009932,0.007390425422627359
-4.823343947845273,0.007495839485338064
-4.815548739680614,0.007602381261188722
-4.807753531515955,0.0077100409914918734
-4.799958323351296,0.007818808049714587
-4.792163115186637,0.007928670960672037
-4.784367907021978,0.00803961742398326
-4.7765726988573185,0.008151634341772074
-4.76877749069266,0.008264707850570683
-4.760982282528,0.008378823357361283
-4.753187074363342,0.008493965579666501
-4.745391866198682,0.00861011858957814
-4.737596658034024,0.008727265861589267
-4.729801449869364,0.00884539032407437
-4.7220062417047055,0.008964474414241076
-4.714211033540046,0.009084500136355426
-4.706415825375387,0.0092054491230259
-4.698620617210728,0.009327302699311212
-4.690825409046069,0.009450041949401813
-4.68303020088141,0.009573647785608704
-4.675234992716751,0.009698101019380557
-4.667439784552092,0.009823382434056407
-4.659644576387433,0.009949472859052115
-4.6518493682227735,0.010076353245169273
-4.644054160058115,0.01020400474070788
-4.636258951893455,0.010332408768059957
-4.628463743728797,0.01046154710045652
-4.620668535564137,0.010591401938540902
-4.612873327399479,0.01072195598643937
-4.605078119234819,0.010853192527004597
-4.5972829110701605,0.01098509549591126
-4.589487702905501,0.011117649554287689
-4.581692494740842,0.011250840159578415
-4.573897286576183,0.011384653634339388
-4.566102078411524,0.011519077232681155
-4.558306870246865,0.011654099204087706
-4.550511662082206,0.011789708854353455
-4.542716453917547,0.011925896603397646
-4.534921245752888,0.01206265403973299
-4.5271260375882285,0.012199973971383792
-4.51933082942357,0.012337850473070257
-4.51153562125891,0.0124762789294958
-4.503740413094252,0.012615256074597236
-4.495945204929592,0.012754780026639552
-4.488149996764934,0.012894850319062852
-4.480354788600274,0.013035467927010293
-4.4725595804356155,0.013176635289492977
-4.464764372270956,0.013318356327170832
-4.456969164106297,0.013460636455754172
-4.449173955941638,0.013603482595055165
-4.441378747776979,0.013746903173742189
-4.43358353961232,0.013890908129875482
-4.425788331447661,0.014035508907324749
-4.417993123283002,0.014180718448192402
-4.410197915118343,0.014326551181388675
-4.4024027069536835,0.014473023007524979
-4.394607498789025,0.014620151280312053
-4.386812290624365,0.014767954784667699
-4.379017082459707,0.01491645371175665
-4.371221874295047,0.015065669631199624
-4.363426666130389,0.015215625460703326
-4.355631457965729,0.015366345433375672
-4.3478362498010705,0.015517855062999783
-4.340041041636411,0.015670181107549776
-4.332245833471752,0.015823351531237675
-4.324450625307093,0.01597739546538437
-4.316655417142434,0.016132343168411386
-4.308860208977775,0.01628822598524913
-4.301065000813116,0.016445076306455073
-4.293269792648457,0.016602927527332917
-4.285474584483798,0.0167618140073351
-4.2776793763191385,0.01692177103002354
-4.26988416815448,0.01708283476385315
-4.26208895998982,0.017245042224028322
-4.254293751825162,0.01740843123566845
-4.246498543660502,0.01757304039850147
-4.238703335495844,0.017738909053285186
-4.230908127331184,0.01790607725013408
-4.2231129191665255,0.018074585718909138
-4.215317711001866,0.01824447584180061
-4.207522502837207,0.018415789628210437
-4.199727294672548,0.018588569692011708
-4.191932086507889,0.018762859231235524
-4.18413687834323,0.01893870201020398
-4.176341670178571,0.019116142344099998
-4.168546462013912,0.01929522508593054
-4.160751253849253,0.019475995615810312
-4.1529560456845935,0.01965849983245908
-4.145160837519935,0.019842784146775053
-4.137365629355275,0.020028895477312837
-4.129570421190617,0.020216881247464347
-4.121775213025957,0.020406789384108903
-4.113980004861299,0.020598668317468365
-4.106184796696639,0.020792566981873768
-4.0983895885319805,0.020988534817123067
-4.090594380367321,0.02118662177008041
-4.082799172202662,0.02138687829614616
-4.075003964038003,0.021589355360200815
-4.067208755873344,0.021794104436608088
-4.059413547708685,0.022001177507843115
-4.051618339544026,0.022210627061296603
-4.043823131379367,0.02242250608379398
-4.036027923214708,0.022636868053358874
-4.0282327150500485,0.022853766927744157
-4.02043750688539,0.02307325712925187
-4.01264229872073,0.023295393525363608
-4.004847090556072,0.023520231404708568
-3.9970518823914127,0.023747826447903925
-3.9892566742267537,0.0239782346928164
-3.9814614660620946,0.024211512493808197
-3.9736662578974355,0.02444771647455306
-3.9658710497327765,0.024686903474031113
-3.9580758415681174,0.02492913048534042
-3.9502806334034584,0.025174454586995465
-3.9424854252387993,0.025422932866418748
-3.9346902170741402,0.025674622335371936
-3.926895008909481,0.02592957983711687
-3.919099800744822,0.026187861945142762
-3.911304592580163,0.026449524853348044
-3.903509384415504,0.02671462425761653
-3.895714176250845,0.026983215228785246
-3.887918968086186,0.02725535207705919
-3.880123759921527,0.027531088207988903
-3.8723285517568677,0.027810475970189614
-3.8645333435922087,0.028093566495044294
-3.8567381354275496,0.028380409528698334
-3.8489429272628906,0.028671053256719155
-3.8411477190982315,0.028965544121860035
-3.8333525109335724,0.029263926635433223
-3.8255573027689134,0.02956624318286209
-3.8177620946042543,0.029872533824047313
-3.8099668864395952,0.030182836089243048
-3.802171678274936,0.030497184771200232
-3.794376470110277,0.030815611714392375
-3.786581261945618,0.0311381456021934
-3.778786053780959,0.03146481174292918
-3.7709908456163,0.03179563185577196
-3.763195637451641,0.03213062385749021
-3.755400429286982,0.03246980165110526
-3.7476052211223227,0.03281317491753939
-3.7398100129576637,0.0331607489113692
-3.7320148047930046,0.03351252426181851
-3.7242195966283456,0.03386849678014427
-3.7164243884636865,0.034228657274575504
-3.7086291802990274,0.03459299137397244
-3.7008339721343684,0.034961479361366156
-3.6930387639697093,0.03533409601853132
-3.6852435558050503,0.0357108104827261
-3.677448347640391,0.036091586116709554
-3.669653139475732,0.036476380393115175
-3.661857931311073,0.03686514479422036
-3.654062723146414,0.03725782472810767
-3.646267514981755,0.037654359462159614
-3.638472306817096,0.03805468207477142
-3.630677098652437,0.03845871942609999
-3.6228818904877778,0.03886639214859676
-3.6150866823231187,0.03927761465799405
-3.6072914741584596,0.03969229518533249
-3.5994962659938006,0.04011033583052975
-3.5917010578291415,0.04053163263789739
-3.5839058496644824,0.04095607569391782
-3.5761106414998234,0.04138354924749206
-3.5683154333351643,0.04181393185276702
-3.5605202251705053,0.042247096534545156
-3.552725017005846,0.04268291097617164
-3.544929808841187,0.04312123772968636
-3.537134600676528,0.043561934447918504
-3.529339392511869,0.044004854138091326
-3.52154418434721,0.044449845436398044
-3.513748976182551,0.04489675290289998
-3.505953768017892,0.04534541733599481
-3.4981585598532328,0.045795676105597836
-3.4903633516885737,0.04624736350408172
-3.4825681435239146,0.046700311113921075
-3.4747729353592556,0.04715434819089983
-3.4669777271945965,0.04760930206164953
-3.4591825190299375,0.04806499853420735
-3.4513873108652784,0.048521262320206066
-3.4435921027006193,0.04897791746723891
-3.4357968945359603,0.049434787799880295
-3.428001686371301,0.04989169736778818
-3.420206478206642,0.050348470899264836
-3.412411270041983,0.05080493425861459
-3.404616061877324,0.05126091490560312
-3.396820853712665,0.05171624235530075
-3.389025645548006,0.052170748636575205
-3.381230437383347,0.05262426874749297
-3.3734352292186878,0.05307664110588985
-3.3656400210540287,0.05352770799338051
-3.3578448128893696,0.053977315991095245
-3.3500496047247106,0.05442531640545933
-3.3422543965600515,0.054871565682363635
-3.3344591883953925,0.0553159258081191
-3.3266639802307334,0.055758264695636384
-3.3188687720660743,0.056198456554331325
-3.3110735639014153,0.05663638224232001
-3.303278355736756,0.05707192959953898
-3.295483147572097,0.057504993760504594
-3.287687939407438,0.05793547744550746
-3.279892731242779,0.05836329122912841
-3.27209752307812,0.058788353785054835
-3.264302314913461,0.059210592106275425
-3.256507106748802,0.05962994169983276
-3.2487118985841428,0.060046346755419144
-3.2409166904194837,0.06045976028720886
-3.2331214822548247,0.060870144248430576
-3.2253262740901656,0.06127746961829604
-3.2175310659255065,0.061681716461013884
-3.2097358577608475,0.06208287395673173
-3.2019406495961884,0.062480940404363514
-3.1941454414315293,0.06287592319637138
-3.1863502332668703,0.0632678387656849
-3.178555025102211,0.06365671250505028
-3.170759816937552,0.06404257865921048
-3.162964608772893,0.06442548019042404
