Values,Density
-10.010154332831199,1.1845172692703798e-7
-10.001322752853783,1.204717280378631e-7
-9.992491172876367,1.2453383964328157e-7
-9.98365959289895,1.306882359275452e-7
-9.974828012921535,1.3901056183929228e-7
-9.965996432944118,1.4960244340556095e-7
-9.957164852966702,1.6259216631397955e-7
-9.948333272989286,1.7813552015411016e-7
-9.93950169301187,1.9641680841508968e-7
-9.930670113034452,2.176500197847986e-7
-9.921838533057036,2.4208015952931206e-7
-9.91300695307962,2.6998473644235244e-7
-9.904175373102204,3.0167540158998474e-7
-9.895343793124788,3.37499733563118e-7
-9.886512213147371,3.778431644785307e-7
-9.877680633169955,4.231310397478927e-7
-9.86884905319254,4.7383080337137784e-7
-9.860017473215123,5.304543000961282e-7
-9.851185893237707,5.935601832818271e-7
-9.84235431326029,6.637564166633858e-7
-9.833522733282875,7.417028570488871e-7
-9.824691153305459,8.281139021876216e-7
-9.815859573328042,9.237611871548701e-7
-9.807027993350626,1.0294763113927186e-6
-9.79819641337321,1.146153574882458e-6
-9.789364833395794,1.2747527015771754e-6
-9.780533253418378,1.4163015263080059e-6
-9.77170167344096,1.5718986175333738e-6
-9.762870093463544,1.7427158092164774e-6
-9.754038513486128,1.930000610175786e-6
-9.745206933508712,2.1350784594476035e-6
-9.736375353531296,2.3593547936739956e-6
-9.72754377355388,2.604316890078215e-6
-9.718712193576463,2.8715354482983235e-6
-9.709880613599047,3.1626658720737555e-6
-9.701049033621631,3.479449210133309e-6
-9.692217453644215,3.8237127160042905e-6
-9.683385873666799,4.197369984209123e-6
-9.674554293689383,4.602420621708722e-6
-9.665722713711967,5.040949410244425e-6
-9.65689113373455,5.515124920158626e-6
-9.648059553757134,6.027197532679912e-6
-9.639227973779718,6.579496831363857e-6
-9.630396393802302,7.174428324232401e-6
-9.621564813824886,7.81446946073773e-6
-9.612733233847468,8.502164910020177e-6
-9.603901653870052,9.240121070473728e-6
-9.595070073892636,1.003099978480644e-5
-9.58623849391522,1.0877511238167534e-5
-9.577406913937804,1.178240602394548e-5
-9.568575333960387,1.274846636530394e-5
-9.559743753982971,1.3778496487988623e-5
-9.550912174005555,1.487531214721706e-5
-9.542080594028139,1.604172931659459e-5
-9.533249014050723,1.728055205746891e-5
-9.524417434073307,1.859455959375006e-5
-9.51558585409589,1.9986492625571894e-5
-9.506754274118475,2.1459038925791124e-5
-9.497922694141058,2.301481827030917e-5
-9.489091114163642,2.4656366764443105e-5
-9.480259534186226,2.6386120636108512e-5
-9.47142795420881,2.820639957546063e-5
-9.462596374231394,3.0119389711395425e-5
-9.453764794253976,3.212712632287042e-5
-9.44493321427656,3.42314763925565e-5
-9.436101634299144,3.6434121117909224e-5
-9.427270054321728,3.8736538503007095e-5
-9.418438474344311,4.113998616087425e-5
-9.409606894366895,4.3645484461729556e-5
-9.40077531438948,4.6253800168632314e-5
-9.391943734412063,4.89654307051883e-5
-9.383112154434647,5.178058920144238e-5
-9.37428057445723,5.469919046942329e-5
-9.365448994479815,5.772083805420311e-5
-9.356617414502399,6.08448125102197e-5
-9.347785834524982,6.407006104518914e-5
-9.338954254547566,6.739518867234992e-5
-9.33012267457015,7.081845100376238e-5
-9.321291094592734,7.433774880912306e-5
-9.312459514615318,7.795062445647635e-5
-9.303627934637902,8.165426033764772e-5
-9.294796354660484,8.54454793700575e-5
-9.285964774683068,8.932074765062234e-5
-9.277133194705652,9.327617932232066e-5
-9.268301614728236,9.730754369597847e-5
-9.25947003475082,0.00010141027465166569
-9.250638454773403,0.00010557948232374145
-9.241806874795987,0.00010980996705420298
-9.232975294818571,0.00011409623557569887
-9.224143714841155,0.00011843251936605181
-9.215312134863739,0.000122812795092863
-9.206480554886323,0.00012723080704406253
-9.197648974908907,0.0001316800914206856
-9.18881739493149,0.0001361540023444418
-9.179985814954074,0.00014064573941370215
-9.171154234976658,0.00014514837662194316
-9.162322654999242,0.00014965489243377178
-9.153491075021826,0.00015415820079789713
-9.14465949504441,0.00015865118286153765
-9.135827915066992,0.00016312671913788768
-9.126996335089576,0.00016757772186816802
-9.11816475511216,0.00017199716731176873
-9.109333175134743,0.0001763781276933954
-9.100501595157327,0.00018071380253200167
-9.091670015179911,0.00018499754907988497
-9.082838435202495,0.00018922291160057905
-9.074006855225079,0.0001933836492231597
-9.065175275247663,0.0001974737621193018
-9.056343695270247,0.00020148751576186744
-9.04751211529283,0.00020541946304090258
-9.038680535315414,0.000209264464029274
-9.029848955337998,0.00021301770321377478
-9.021017375360582,0.00021667470402910588
-9.012185795383166,0.0002202313405603694
-9.00335421540575,0.00022368384630565286
-8.994522635428334,0.00022702881992187757
-8.985691055450918,0.00023026322790721185
-8.9768594754735,0.00023338440420607454
-8.968027895496084,0.00023639004675535952
-8.959196315518668,0.00023927821102513042
-8.950364735541251,0.00024204730063754135
-8.941533155563835,0.00024469605518373863
-8.93270157558642,0.0002472235353872601
-8.923869995609003,0.0002496291057953043
-8.915038415631587,0.0002519124152061472
-8.90620683565417,0.0002540733750687821
-8.897375255676755,0.0002561121361150699
-8.888543675699339,0.0002580290635051212
-8.879712095721922,0.00025982471078637645
-8.870880515744506,0.0002614997929808738
-8.86204893576709,0.0002630551591272304
-8.853217355789674,0.0002644917646114457
-8.844385775812258,0.0002658106436243951
-8.835554195834842,0.00026701288208400356
-8.826722615857426,0.0002680995913564993
-8.817891035880008,0.0002690718831009943
-8.809059455902592,0.000269930845553476
-8.800227875925176,0.0002706775215464835
-8.79139629594776,0.00027131288854407784
-8.782564715970343,0.0002718378409481137
-8.773733135992927,0.0002722531749057358
-8.764901556015511,0.00027255957581980017
-8.756069976038095,0.0002727576087319279
-8.747238396060679,0.0002728477117158769
-8.738406816083263,0.0002728301923821952
-8.729575236105847,0.0002727052275603957
-8.72074365612843,0.0002724728661867397
-8.711912076151014,0.000272133035388384
-8.703080496173598,0.00027168554971758116
-8.694248916196182,0.0002711301234520416
-8.685417336218766,0.0002704663858418936
-8.67658575624135,0.00026969389914986014
-8.667754176263934,0.0002688121792963974
-8.658922596286516,0.00026782071889417183
-8.6500910163091,0.00026671901242516366
-8.641259436331683,0.00026550658329105303
-8.632427856354267,0.0002641830124439741
-8.623596276376851,0.00026274796828745783
-8.614764696399435,0.00026120123752211913
-8.605933116422019,0.00025954275659877124
-8.597101536444603,0.0002577726434364047
-8.588269956467187,0.0002558912290567053
-8.57943837648977,0.00025389908878933887
-8.570606796512354,0.00025179707270543694
-8.561775216534938,0.0002495863349454633
-8.552943636557522,0.0002472683616190699
-8.544112056580106,0.00024484499697020184
-8.53528047660269,0.0002423184675178075
-8.526448896625274,0.00023969140390563137
-8.517617316647858,0.00023696686021652813
-8.508785736670442,0.00023414833053380518
-8.499954156693024,0.00023123976256059914
-8.491122576715608,0.0002282455681363281
-8.482290996738191,0.00022517063052215902
-8.473459416760775,0.00022202030835702727
-8.46462783678336,0.00021880043621999579
-8.455796256805943,0.00021551732176474866
-8.446964676828527,0.00021217773942561885
-8.43813309685111,0.000208788920725185
-8.429301516873695,0.00020535854124325778
-8.420469936896279,0.00020189470433712095
-8.411638356918862,0.0001984059217295872
-8.402806776941446,0.00019490109110688672
-8.39397519696403,0.00019138947089330366
-8.385143616986614,0.00018788065238851612
-8.376312037009198,0.00018438452947571252
-8.367480457031782,0.000180911266121353
-8.358648877054366,0.00017747126190514884
-8.34981729707695,0.0001740751158268057
-8.340985717099532,0.0001707335886468389
-8.332154137122116,0.00016745756402425718
-8.3233225571447,0.00016425800871609428
-8.314490977167283,0.00016114593210724698
-8.305659397189867,0.00015813234533440523
-8.296827817212451,0.00015522822026734634
-8.287996237235035,0.00015244444860191414
-8.279164657257619,0.0001497918013139768
-8.270333077280203,0.00014728088871149292
-8.261501497302786,0.00014492212131309717
-8.25266991732537,0.00014272567176617373
-8.243838337347954,0.0001407014380068461
-8.235006757370538,0.0001388590078461316
-8.226175177393122,0.00013720762515372076
-8.217343597415706,0.0001357561577929739
-8.20851201743829,0.0001345130674444417
-8.199680437460874,0.00013348638143888952
-8.190848857483457,0.00013268366670304843
-8.18201727750604,0.00013211200590544994
-8.173185697528623,0.00013177797587178922
-8.164354117551207,0.00013168762832469275
-8.155522537573791,0.00013184647298547167
-8.146690957596375,0.00013225946306115455
-8.137859377618959,0.00013293098312558774
-8.129027797641543,0.00013386483938912855
-8.120196217664127,0.00013506425233913988
-8.11136463768671,0.00013653185172135193
-8.102533057709294,0.0001382696738203154
-8.093701477731878,0.00014027916098801468
-8.084869897754462,0.00014256116336001934
-8.076038317777046,0.00014511594268957692
-8.06720673779963,0.00014794317822419342
-8.058375157822214,0.00015104197454103227
-8.049543577844798,0.00015441087125429506
-8.040711997867382,0.0001580478545004961
-8.031880417889965,0.00016195037010731383
-8.023048837912548,0.00016611533834549885
-8.014217257935131,0.00017053917016467135
-8.005385677957715,0.00017521778481108946
-7.9965540979803,0.00018014662872567477
-7.987722518002883,0.00018532069562179898
-7.978890938025467,0.0001907345476435951
-7.970059358048051,0.00019638233750695483
-7.961227778070635,0.00020225783152975213
-7.9523961980932185,0.00020835443345947058
-7.943564618115802,0.0002146652090118037
-7.934733038138386,0.00022118291103768312
-7.92590145816097,0.00022790000524113008
-7.917069878183554,0.00023480869637609175
-7.908238298206137,0.00024190095485497956
-7.899406718228721,0.00024916854370878386
-7.890575138251305,0.0002566030458436147
-7.881743558273889,0.00026419589154437137
-7.8729119782964725,0.0002719383861830224
-7.864080398319056,0.00027982173809335334
-7.85524881834164,0.000287837086580138
-7.846417238364224,0.00029597553003599814
-7.837585658386808,0.0003042281541418279
-7.828754078409391,0.0003125860601331798
-7.819922498431975,0.00032104039311481314
-7.811090918454559,0.00032958237041101623
-7.802259338477143,0.0003382033099374286
-7.7934277584997265,0.00034689465858290386
-7.78459617852231,0.0003556480205873548
-7.775764598544894,0.00036445518590000683
-7.766933018567478,0.00037330815849983753
-7.758101438590062,0.000382199184654472
-7.749269858612645,0.00039112078108919984
-7.740438278635229,0.00040006576303028177
-7.731606698657813,0.0004090272720796845
-7.722775118680397,0.00041799880386828026
-7.71394353870298,0.0004269742354259345
-7.705111958725564,0.0004359478521953619
-7.696280378748148,0.0004449143746064067
-7.687448798770732,0.00045386898411380527
-7.678617218793316,0.0004628073485918021
-7.669785638815899,0.00047172564696548367
-7.660954058838483,0.00048062059294648875
-7.652122478861067,0.0004894894577309153
-7.6432908988836505,0.0004983300915050899
-7.634459318906234,0.0005071409435957891
-7.625627738928818,0.0005159210810923513
-7.616796158951402,0.0005246702057624677
-7.607964578973986,0.0005333886690761268
-7.59913299899657,0.0005420774851510928
-7.590301419019153,0.0005507383414302176
-7.581469839041737,0.0005593736069038448
-7.572638259064321,0.0005679863376931835
-7.5638066790869045,0.0005765802798182889
-7.554975099109488,0.0005851598689823812
-7.546143519132072,0.0005937302272178625
-7.537311939154656,0.000602297156252939
-7.52848035917724,0.0006108671274772849
-7.519648779199824,0.0006194472684040729
-7.510817199222407,0.0006280453455502905
-7.501985619244991,0.0006366697436815215
-7.493154039267575,0.0006453294413961553
-7.4843224592901585,0.0006540339830526347
-7.475490879312742,0.000662793447074434
-7.466659299335326,0.0006716184107001845
-7.45782771935791,0.0006805199112783558
-7.448996139380494,0.0006895094042397298
-7.440164559403078,0.0006985987179135081
-7.431332979425661,0.0007078000053853083
-7.422501399448245,0.0007171256936262388
-7.413669819470829,0.0007265884301530003
-7.4048382394934125,0.0007362010275040881
-7.396006659515996,0.000745976405845096
-7.38717507953858,0.0007559275340355137
-7.378343499561164,0.0007660673695094773
-7.369511919583748,0.0007764087973373308
-7.360680339606332,0.0007869645688454857
-7.351848759628915,0.0007977472401790933
-7.343017179651499,0.0008087691111927225
-7.334185599674083,0.0008200421650534397
-7.325354019696666,0.0008315780089315494
-7.31652243971925,0.0008433878161430847
-7.307690859741834,0.0008554822700915753
-7.298859279764418,0.0008678715103345273
-7.290027699787002,0.0008805650810764613
-7.281196119809586,0.0008935718823595562
-7.272364539832169,0.0009069001241910173
-7.263532959854753,0.0009205572838114559
-7.2547013798773365,0.000934550066268424
-7.24586979989992,0.0009488843684216479
-7.237038219922504,0.0009635652464625201
-7.228206639945088,0.0009785968869903926
-7.219375059967672,0.0009939825816446014
-7.210543479990256,0.0010097247052499557
-7.20171190001284,0.0010258246973938907
-7.192880320035423,0.0010422830473138835
-7.184048740058007,0.0010590992819395455
-7.1752171600805905,0.0010762719569005416
-7.166385580103174,0.001093798650283754
-7.157554000125758,0.0011116759588985815
-7.148722420148342,0.001129899496790654
-7.139890840170926,0.001148463895729892
-7.13105926019351,0.0011673628073915858
-7.122227680216094,0.0011865889069453371
-7.113396100238677,0.0012061338977719972
-7.104564520261261,0.0012259885170372506
-7.0957329402838445,0.0012461425418664566
-7.086901360306428,0.0012665847958873884
-7.078069780329012,0.0012873031559336376
-7.069238200351596,0.0013082845587347736
-7.06040662037418,0.0013295150074556922
-7.051575040396764,0.001350979577989294
-7.042743460419348,0.0013726624249516678
-7.033911880441931,0.0013945467873766014
-7.025080300464515,0.0014166149941566841
-7.0162487204870985,0.0014388484693292729
-7.007417140509682,0.001461227737357948
-6.998585560532266,0.0014837324286114464
-6.98975398055485,0.0015063412852920413
-6.980922400577434,0.0015290321681141507
-6.972090820600018,0.001551782064077148
-6.963259240622602,0.00157456709571957
-6.954427660645185,0.0015973625322754405
-6.945596080667769,0.001620142803185523
-6.936764500690352,0.0016428815144393823
-6.927932920712936,0.001665551468240458
-6.91910134073552,0.0016881246864977398
-6.910269760758104,0.001710572438645367
-6.901438180780688,0.0017328652742875546
-6.892606600803272,0.0017549730611479235
-6.883775020825856,0.0017768650287783919
-6.874943440848439,0.001798509818448854
-6.8661118608710225,0.0018198755395969074
-6.857280280893606,0.0018409298331651044
-6.84844870091619,0.001861639942095785
-6.839617120938774,0.0018819727891855285
-6.830785540961358,0.0019018950624292187
-6.821953960983942,0.0019213733079036545
-6.813122381006526,0.0019403740301557337
-6.80429080102911,0.001958863799971431
-6.795459221051693,0.0019768093693090846
-6.7866276410742765,0.001994177793085918
-6.77779606109686,0.002010936557410494
-6.768964481119444,0.0020270537137587735
-6.760132901142028,0.0020424980184964962
-6.751301321164612,0.002057239077059611
-6.742469741187196,0.0020712474920156487
-6.73363816120978,0.0020844950141466687
-6.724806581232364,0.00209695469561794
-6.715975001254947,0.002108601044226485
-6.7071434212775305,0.002119410177662876
-6.698311841300114,0.0021293599766684934
-6.689480261322698,0.002138430235927552
-6.680648681345282,0.0021466028115041686
-6.671817101367866,0.002153861763613922
-6.66298552139045,0.0021601934935129834
-6.654153941413034,0.0021655868732928553
-6.645322361435618,0.0021700333673855664
-6.636490781458201,0.002173527144615172
-6.6276592014807845,0.0021760651796725074
-6.618827621503368,0.0021776473429459403
-6.609996041525952,0.002178276477705861
-6.601164461548536,0.0021779584637187342
-6.59233288157112,0.0021767022664540003
-6.583501301593704,0.0021745199711444944
-6.574669721616288,0.0021714268010665835
-6.565838141638872,0.002167441119521508
-6.557006561661455,0.002162584415116806
-6.548174981684038,0.0021568812700748508
-6.539343401706622,0.0021503593114233516
-6.530511821729206,0.0021430491450544053
-6.52168024175179,0.002134984272773935
-6.512848661774374,0.002126200992594151
-6.504017081796958,0.0021167382826559143
-6.495185501819542,0.0021066376692955077
-6.486353921842126,0.0020959430798967553
-6.4775223418647085,0.0020847006812889143
-6.468690761887292,0.002072958704564915
-6.459859181909876,0.002060767257300535
-6.45102760193246,0.0020481781242540215
-6.442196021955044,0.0020352445577134608
-6.433364441977628,0.0020220210587392744
-6.424532862000212,0.002008563150616904
-6.415701282022796,0.0019949271458927394
-6.4068697020453795,0.001981169908411823
-6.3980381220679625,0.001967348611811333
-6.389206542090546,0.0019535204959457587
-6.38037496211313,0.001939742622731496
-6.371543382135714,0.0019260716328981728
-6.362711802158298,0.0019125635051227257
-6.353880222180882,0.0018992733190003495
-6.345048642203466,0.0018862550232725973
-6.33621706222605,0.0018735612106929589
-6.3273854822486335,0.0018612429008567875
-6.3185539022712165,0.0018493493322633645
-6.3097223222938,0.0018379277648111255
-6.300890742316384,0.0018270232938519398
-6.292059162338968,0.0018166786768500556
-6.283227582361552,0.0018069341736068108
-6.274396002384136,0.001797827400920828
-6.26556442240672,0.0017893932024612737
-6.256732842429304,0.0017816635345348948
-6.2479012624518875,0.0017746673683290935
-6.2390696824744705,0.0017684306091148728
-6.230238102497054,0.0017629760327922562
-6.221406522519638,0.0017583232400617196
-6.212574942542222,0.0017544886284049637
-6.203743362564806,0.0017514853819612652
-6.19491178258739,0.0017493234792878912
-6.186080202609974,0.0017480097188996326
-6.177248622632558,0.0017475477623893985
-6.1684170426551415,0.0017479381948431946
-6.159585462677724,0.0017491786021757508
-6.150753882700308,0.0017512636649300965
-6.141922302722892,0.0017541852680037894
-6.133090722745476,0.0017579326256890893
-6.12425914276806,0.0017624924213397834
-6.115427562790644,0.0017678489609098472
-6.106595982813228,0.0017739843395419442
-6.097764402835812,0.0017808786203233288
-6.088932822858395,0.0017885100242683912
-6.080101242880978,0.0017968551305332023
-6.071269662903562,0.001805889085818158
-6.062438082926146,0.0018155858218690969
-6.05360650294873,0.0018259182799456822
-6.044774922971314,0.0018368586410906686
-6.035943342993898,0.0018483785609992413
-6.027111763016482,0.0018604494082629427
-6.0182801830390655,0.0018730425047385046
-6.009448603061649,0.0018861293667756952
-6.000617023084232,0.0018996819460274303
-5.991785443106816,0.0019136728685575765
-5.9829538631294,0.0019280756709641588
-5.974122283151984,0.0019428650322399522
-5.965290703174568,0.0019580170001061714
-5.956459123197152,0.001973509210572986
-5.947627543219736,0.001989321099507073
-5.9387959632423195,0.002005434105018203
-5.929964383264903,0.002021831859516555
-5.921132803287486,0.002038500370338602
-5.91230122331007,0.002055428187892904
-5.903469643332654,0.002072606560336478
-5.894638063355238,0.00209002957385984
-5.885806483377822,0.0021076942777315784
-5.876974903400406,0.0021256007933326644
-5.86814332342299,0.002143752406496017
-5.8593117434455735,0.002162155642556978
-5.850480163468157,0.0021808203236167584
-5.84164858349074,0.0021997596076187686
-5.832817003513324,0.0022189900089430647
-5.823985423535908,0.0022385314003290167
-5.815153843558492,0.0022584069960453253
-5.806322263581076,0.0022786433163360636
-5.79749068360366,0.002299270133281327
-5.788659103626244,0.0023203203983223966
-5.7798275236488275,0.002341830151807546
-5.770995943671411,0.00236383841502342
-5.762164363693994,0.0023863870652789075
-5.753332783716578,0.002409520694707918
-5.744501203739162,0.002433286453552865
-5.735669623761746,0.002457733878778349
-5.72683804378433,0.002482914708948082
-5.718006463806914,0.0025088826863731966
-5.709174883829498,0.002535693347607266
-5.700343303852081,0.0025634038034232434
