Values,Density
-9.642964465822335,1.3033602953849144e-7
-9.63326393635421,1.2883243394323785e-7
-9.623563406886085,1.2929436418729345e-7
-9.61386287741796,1.317148562718362e-7
-9.604162347949835,1.3610897960092405e-7
-9.59446181848171,1.4251374209905965e-7
-9.584761289013585,1.5098814001857086e-7
-9.57506075954546,1.6161334967512708e-7
-9.565360230077337,1.7449305854400077e-7
-9.555659700609212,1.897539329970277e-7
-9.545959171141087,2.075462195161304e-7
-9.536258641672962,2.2804447735724764e-7
-9.526558112204837,2.5144843880664514e-7
-9.516857582736712,2.7798399489242787e-7
-9.507157053268587,3.079043021658734e-7
-9.497456523800462,3.414910086096956e-7
-9.487755994332337,3.79055593122124e-7
-9.478055464864212,4.2094081624532986e-7
-9.468354935396087,4.6752227625401765e-7
-9.458654405927962,5.192100666767674e-7
-9.448953876459838,5.764505296573796e-7
-9.439253346991713,6.397280987030518e-7
-9.429552817523588,7.095672252266372e-7
-9.419852288055463,7.865343811808145e-7
-9.41015175858734,8.712401297350514e-7
-9.400451229119215,9.64341256390333e-7
-9.39075069965109,1.066542949998417e-6
-9.381050170182965,1.1786010243874934e-6
-9.37134964071484,1.3013241691450794e-6
-9.361649111246715,1.4355762179840692e-6
-9.35194858177859,1.5822784214108987e-6
-9.342248052310465,1.742411710539682e-6
-9.33254752284234,1.917018937406482e-6
-9.322846993374215,2.1072070756538233e-6
-9.31314646390609,2.3141493661156184e-6
-9.303445934437965,2.5390873894682447e-6
-9.29374540496984,2.7833330483099765e-6
-9.284044875501715,3.04827043927456e-6
-9.27434434603359,3.3353575968446403e-6
-9.264643816565465,3.6461280873150044e-6
-9.254943287097342,3.982192433823681e-6
-9.245242757629217,4.345239350364398e-6
-9.235542228161092,4.7370367638552985e-6
-9.225841698692967,5.1594326032633475e-6
-9.216141169224842,5.6143553335127536e-6
-9.206440639756718,6.103814213692053e-6
-9.196740110288593,6.62989925793089e-6
-9.187039580820468,7.194780879246545e-6
-9.177339051352343,7.800709195360505e-6
-9.167638521884218,8.45001297914219e-6
-9.157937992416093,9.145098234461697e-6
-9.148237462947968,9.888446381701131e-6
-9.138536933479843,1.0682612037944336e-5
-9.128836404011718,1.1530220377860105e-5
-9.119135874543593,1.2433964065102984e-5
-9.109435345075468,1.3396599743802952e-5
-9.099734815607345,1.4420944084153967e-5
-9.09003428613922,1.5509869377727283e-5
-9.080333756671095,1.666629868053715e-5
-9.07063322720297,1.7893200505766232e-5
-9.060932697734845,1.9193583070325343e-5
-9.05123216826672,2.0570488103058976e-5
-9.041531638798595,2.2026984225562672e-5
-9.03183110933047,2.356615992012926e-5
-9.022130579862345,2.519111610280525e-5
-9.01243005039422,2.6904958323052328e-5
-9.002729520926096,2.871078861524899e-5
-8.99302899145797,3.061169703031698e-5
-8.983328461989846,3.261075288040448e-5
-8.97362793252172,3.471099573132061e-5
-8.963927403053596,3.691542618230667e-5
-8.954226873585473,3.92269964747333e-5
-8.944526344117348,4.164860097540836e-5
-8.934825814649223,4.418306658144928e-5
-8.925125285181098,4.6833143097489184e-5
-8.915424755712973,4.9601493638001815e-5
-8.905724226244848,5.249068510817037e-5
-8.896023696776723,5.550317882027731e-5
-8.886323167308598,5.8641321301950225e-5
-8.876622637840473,6.190733535446462e-5
-8.866922108372348,6.530331141905467e-5
-8.857221578904223,6.883119930978926e-5
-8.847521049436098,7.249280036959044e-5
-8.837820519967973,7.6289760107413e-5
-8.828119990499848,8.022356137044918e-5
-8.818419461031723,8.429551810488697e-5
-8.808718931563599,8.850676975663031e-5
-8.799018402095475,9.285827635933074e-5
-8.78931787262735,9.735081435477237e-5
-8.779617343159225,0.00010198497318686037
-8.7699168136911,0.00010676115270633751
-8.760216284222976,0.00011167956141891998
-8.75051575475485,0.0001167402156050032
-8.740815225286726,0.00012194293933401844
-8.7311146958186,0.00012728736539188018
-8.721414166350476,0.00013277293713279473
-8.711713636882351,0.0001383989112643154
-8.702013107414226,0.00014416436156528857
-8.692312577946101,0.00015006818353363507
-8.682612048477976,0.0001561090999532425
-8.672911519009851,0.00016228566736532259
-8.663210989541726,0.00016859628342203933
-8.653510460073601,0.00017503919509731167
-8.643809930605478,0.00018161250772227681
-8.634109401137353,0.00018831419480992706
-8.624408871669228,0.00019514210862747218
-8.614708342201103,0.0002020939914712857
-8.605007812732978,0.00020916748759586268
-8.595307283264853,0.0002163601557436893
-8.585606753796728,0.0002236694822212136
-8.575906224328603,0.00023109289446174644
-8.566205694860479,0.00023862777501602872
-8.556505165392354,0.00024627147590728163
-8.546804635924229,0.0002540213332886711
-8.537104106456104,0.00026187468233756193
-8.527403576987979,0.0002698288723235187
-8.517703047519854,0.00027788128178442284
-8.508002518051729,0.0002860293337472661
-8.498301988583604,0.0002942705109303806
-8.48860145911548,0.00030260237086476675
-8.478900929647356,0.0003110225608742873
-8.469200400179231,0.00031952883285538657
-8.459499870711106,0.0003281190578003929
-8.449799341242981,0.00033679124000832
-8.440098811774856,0.0003455435309317849
-8.430398282306731,0.0003543742426094839
-8.420697752838606,0.00036328186063692633
-8.410997223370481,0.00037226505662948245
-8.401296693902356,0.00038132270013622495
-8.391596164434231,0.0003904538699631265
-8.381895634966106,0.00039965786486810886
-8.372195105497982,0.00040893421359198927
-8.362494576029857,0.0004182826841915045
-8.352794046561732,0.00042770329264247946
-8.343093517093608,0.0004371963106830183
-8.333392987625484,0.0004467622728680492
-8.323692458157359,0.00045640198280815815
-8.313991928689234,0.0004661165185668951
-8.304291399221109,0.00047590723719114457
-8.294590869752984,0.00048577577835179526
-8.284890340284859,0.0004957240670707581
-8.275189810816734,0.000505754315512856
-8.265489281348609,0.000515869023821185
-8.255788751880484,0.0005260709799753491
-8.246088222412359,0.0005363632586526113
-8.236387692944234,0.0005467492190742353
-8.22668716347611,0.0005572325018177657
-8.216986634007984,0.0005678170245800758
-8.20728610453986,0.000578506976875403
-8.197585575071734,0.0005893068136550179
-8.187885045603611,0.0006002212478373337
-8.178184516135486,0.0006112552417387399
-8.168483986667361,0.0006224139973989729
-8.158783457199236,0.0006337029457973674
-8.149082927731111,0.000645127734959507
-8.139382398262986,0.000656694216957722
-8.129681868794862,0.0006684084338135967
-8.119981339326737,0.000680276602314029
-8.110280809858612,0.0006923050977584097
-8.100580280390487,0.0007045004366590737
-8.090879750922362,0.0007168692584234478
-8.081179221454237,0.0007294183060510637
-8.071478691986112,0.0007421544058862604
-8.061778162517987,0.0007550844464726805
-8.052077633049862,0.000768215356562304
-8.042377103581737,0.0007815540823386431
-8.032676574113614,0.0007951075639201733
-8.022976044645489,0.0008088827112161506
-8.013275515177364,0.0008228863792142296
-8.003574985709239,0.0008371253427844633
-7.993874456241114,0.0008516062710904916
-7.984173926772989,0.000866335701704744
-7.974473397304864,0.000881320014528687
-7.964772867836739,0.0008965654056241751
-7.955072338368614,0.0009120778610657767
-7.945371808900489,0.0009278631309277523
-7.9356712794323645,0.0009439267035207845
-7.92597074996424,0.0009602737799973282
-7.9162702204961155,0.000976909249443863
-7.906569691027991,0.0009938376645797532
-7.896869161559866,0.0010110632181814724
-7.887168632091741,0.001028589720349882
-7.877468102623616,0.0010464205767362102
-7.867767573155491,0.0010645587678390599
-7.858067043687366,0.001083006829481115
-7.848366514219241,0.0011017668345704914
-7.838665984751117,0.001120840376245321
-7.828965455282992,0.0011402285524945918
-7.819264925814867,0.0011599319523423936
-7.809564396346742,0.0011799506436745433
-7.799863866878617,0.0012002841627800336
-7.790163337410492,0.001220931505670115
-7.780462807942367,0.0012418911212318537
-7.770762278474243,0.0012631609062617342
-7.761061749006118,0.0012847382024176648
-7.751361219537993,0.0013066197951183325
-7.741660690069868,0.0013288019144097407
-7.731960160601743,0.0013512802378096468
-7.7222596311336185,0.0013740498951323264
-7.7125591016654935,0.0013971054752865888
-7.702858572197369,0.0014204410350321904
-7.6931580427292445,0.0014440501096715241
-7.68345751326112,0.001467925725644999
-7.673756983792995,0.0014920604149923217
-7.66405645432487,0.0015164462316334046
-7.654355924856745,0.0015410747694175973
-7.64465539538862,0.0015659371818824014
-7.634954865920495,0.0015910242036581996
-7.62525433645237,0.001616326173449643
-7.615553806984246,0.0016418330585202725
-7.605853277516121,0.0016675344806015204
-7.596152748047996,0.001693419743145021
-7.586452218579871,0.0017194778598317566
-7.576751689111746,0.0017456975842495021
-7.567051159643621,0.0017720674406472067
-7.557350630175496,0.001798575755671522
-7.547650100707371,0.0018252106909890532
-7.537949571239247,0.0018519602766953781
-7.528249041771122,0.001878812445409682
-7.518548512302997,0.0019057550669522635
-7.508847982834872,0.0019327759834997429
-7.4991474533667475,0.001959863045111431
-7.4894469238986225,0.0019870041455180808
-7.479746394430498,0.002014187258062329
-7.470045864962373,0.002041400471678662
-7.460345335494249,0.002068632026798226
-7.450644806026124,0.002095870351062002
-7.440944276557999,0.002123104094723898
-7.431243747089874,0.0021503221656234053
-7.421543217621749,0.0021775137636049127
-7.411842688153624,0.0022046684142594843
-7.402142158685499,0.002231776001862482
-7.392441629217374,0.0022588268013789894
-7.38274109974925,0.0022858115094074073
-7.373040570281125,0.0023127212739301184
-7.363340040813,0.0023395477227396346
-7.353639511344875,0.0023662829904074964
-7.34393898187675,0.0023929197436638443
-7.334238452408625,0.0024194512050554565
-7.3245379229405,0.002445871174751795
-7.314837393472375,0.0024721740503696674
-7.305136864004251,0.0024983548446909157
-7.295436334536126,0.002524409201149873
-7.2857358050680014,0.0025503334069723813
-7.2760352755998765,0.002576124403853859
-7.266334746131752,0.002601779796069433
-7.256634216663627,0.0026272978559176655
-7.246933687195502,0.0026526775264074706
-7.237233157727377,0.002677918421107525
-7.227532628259253,0.002703020821089048
-7.217832098791128,0.0027279856689041166
-7.208131569323003,0.002752814559555089
-7.198431039854878,0.0027775097284253123
-7.188730510386753,0.0028020740361560884
-7.179029980918628,0.00282651095047169
-7.169329451450503,0.0028508245249707406
-7.159628921982379,0.0028750193749210945
-7.149928392514254,0.00289910065011357
-7.140227863046129,0.002923074004849365
-7.130527333578004,0.0029469455651561123
-7.120826804109879,0.0029707218933470755
-7.111126274641754,0.0029944099500593844
-7.101425745173629,0.003018017053926675
-7.091725215705504,0.0030415508390621406
-7.08202468623738,0.003065019210548312
-7.072324156769255,0.0030884302981488403
-7.0626236273011305,0.0031117924084766648
-7.0529230978330055,0.0031351139758708634
-7.043222568364881,0.0031584035122513925
-7.033522038896756,0.003181669556236661
-7.023821509428631,0.0032049206218226216
-7.014120979960506,0.0032281651469359606
-7.004420450492382,0.003251411442182913
-6.994719921024257,0.0032746676401266173
-6.985019391556132,0.003297941645430045
-6.975318862088007,0.003321241086208765
-6.965618332619882,0.00334457326693838
-6.955917803151757,0.0033679451232618337
-6.946217273683632,0.0033913631790393082
-6.936516744215507,0.0034148335059775094
-6.926816214747383,0.003438361686167863
-6.917115685279258,0.0034619527778515036
-6.907415155811133,0.003485611284716329
-6.897714626343008,0.0035093411290143153
-6.888014096874883,0.003533145628769349
-6.878313567406758,0.0035570274793236462
-6.868613037938633,0.0035809887394468343
-6.8589125084705085,0.0036050308222060974
-6.849211979002384,0.003629154490766069
-6.8395114495342595,0.00365335985925664
-6.8298109200661345,0.003677646398814784
-6.82011039059801,0.00370201294887051
-6.810409861129885,0.003726457733712633
-6.80070933166176,0.0037509783843311263
-6.791008802193635,0.003775571965495831
-6.78130827272551,0.003800235007991536
-6.771607743257386,0.003824963545889709
-6.761907213789261,0.003849753158698425
-6.752206684321136,0.003874599018191347
-6.742506154853011,0.00389949593967907
-6.732805625384886,0.0039244384374464356
-6.723105095916761,0.003949420784044026
-6.713404566448636,0.003974437073085325
-6.703704036980511,0.003999481285168135
-6.694003507512387,0.004024547356506538
-6.684302978044262,0.004049629249831627
-6.674602448576137,0.004074721027091374
-6.664901919108012,0.004099816923457785
-6.655201389639887,0.004124911422128676
-6.6455008601717624,0.004149999329394402
-6.6358003307036375,0.004175075849427359
-6.6260998012355135,0.004200136658242416
-6.6163992717673885,0.004225177976271213
-6.606698742299264,0.004250196638992272
-6.596998212831139,0.004275190165061891
-6.587297683363014,0.00430015682139794
-6.577597153894889,0.004325095684680641
-6.567896624426764,0.004350006698749957
-6.558196094958639,0.004374890727399812
-6.548495565490515,0.004399749602092886
-6.53879503602239,0.004424586164148808
-6.529094506554265,0.00444940430099033
-6.51939397708614,0.004474208976067515
-6.509693447618015,0.004499006252120227
-6.49999291814989,0.004523803307480724
-6.490292388681765,0.004548608445163976
-6.48059185921364,0.004573431094541643
-6.470891329745516,0.004598281805445471
-6.461190800277391,0.00462317223459831
-6.451490270809266,0.0046481151243256205
-6.441789741341141,0.004673124273553698
-6.432089211873016,0.004698214501158586
-6.4223886824048915,0.00472340160178457
-6.4126881529367665,0.004748702294308307
-6.402987623468642,0.0047741341631794
-6.3932870940005175,0.004799715592924656
-6.383586564532393,0.004825465696155012
-6.373886035064268,0.004851404235468442
-6.364185505596143,0.004877551539689369
-6.354484976128018,0.004903928414935646
-6.344784446659893,0.00493055605104587
-6.335083917191768,0.004957455923943511
-6.325383387723643,0.004984649694550755
-6.315682858255519,0.005012159104900529
-6.305982328787394,0.005040005872123731
-6.296281799319269,0.005068211581015461
-6.286581269851144,0.005096797575904977
-6.276880740383019,0.00512578485256999
-6.267180210914894,0.0051551939509476615
-6.257479681446769,0.005185044849401237
-6.247779151978644,0.005215356861301576
-6.23807862251052,0.005246148534679817
-6.228378093042395,0.005277437555697231
-6.21867756357427,0.005309240656663975
-6.208977034106145,0.005341573529318943
-6.1992765046380205,0.005374450744057482
-6.1895759751698955,0.005407885675764
-6.179875445701771,0.0054418904368715715
-6.170174916233646,0.005476475818231251
-6.160474386765522,0.00551165123832917
-6.150773857297397,0.005547424701342051
-6.141073327829272,0.0055838027644684925
-6.131372798361147,0.00562079051491797
-6.121672268893022,0.005658391556880088
-6.111971739424897,0.005696608008734035
-6.102271209956772,0.00573544051069318
-6.092570680488647,0.005774888243012664
-6.082870151020523,0.005814948954818757
-6.073169621552398,0.005855619003547791
-6.063469092084273,0.005896893404911956
-6.053768562616148,0.0059387658932362536
-6.044068033148023,0.005981228991939952
-6.034367503679898,0.006024274093863383
-6.024666974211773,0.006067891551071655
-6.014966444743649,0.006112070773695822
-6.005265915275524,0.006156800337307377
-5.995565385807399,0.0062020680982540505
-5.9858648563392745,0.006247861316325641
-5.9761643268711495,0.006294166784058101
-5.966463797403025,0.006340970961929454
-5.9567632679349,0.006388260118651268
-5.947062738466775,0.006436020475711687
-5.937362208998651,0.006484238355286281
-5.927661679530526,0.006532900330596175
-5.917961150062401,0.006581993377763203
-5.908260620594276,0.006631505028187684
-5.898560091126151,0.006681423520456564
-5.888859561658026,0.006731737950778029
-5.879159032189901,0.0067824384209348755
-5.869458502721776,0.00683351618275024
-5.859757973253652,0.006884963778069582
-5.850057443785527,0.00693677517327821
-5.840356914317402,0.006988945887397645
-5.830656384849277,0.007041473112834966
-5.820955855381152,0.0070943558278953964
-5.811255325913027,0.007147594900214504
-5.801554796444902,0.007201193180315696
-5.791854266976777,0.007255155584557213
-5.782153737508653,0.0073094891667957445
-5.772453208040528,0.007364203178162999
-5.7627526785724035,0.007419309114426514
-5.7530521491042785,0.007474820750485479
-5.743351619636154,0.007530754161635357
-5.733651090168029,0.007587127731324655
-5.723950560699904,0.007643962145216263
-5.714250031231779,0.007701280371460813
-5.704549501763655,0.007759107627184245
-5.69484897229553,0.007817471331289266
-5.685148442827405,0.007876401043767078
-5.67544791335928,0.007935928391812758
-5.665747383891155,0.00799608698313462
-5.65604685442303,0.00805691230694019
-5.646346324954905,0.008118441623174896
-5.63664579548678,0.008180713840675721
-5.626945266018656,0.008243769384987297
-5.617244736550531,0.00830765005666597
-5.607544207082406,0.00837239888097013
-5.597843677614281,0.008438059949902339
-5.588143148146156,0.008504678257628259
-5.578442618678031,0.008572299530347691
-5.568742089209906,0.00864097005173876
-5.5590415597417815,0.00871073648512819
-5.549341030273657,0.008781645693568613
-5.5396405008055325,0.008853744559016793
-5.529939971337408,0.008927079801815178
-5.520239441869283,0.009001697801672858
-5.510538912401158,0.009077644421328811
-5.500838382933033,0.00915496483405547
-5.491137853464908,0.009233703356126438
-5.481437323996783,0.009313903285327326
-5.471736794528659,0.00939560674653549
-5.462036265060534,0.009478854545331254
-5.452335735592409,0.009563686030531853
-5.442635206124284,0.009650138966460331
-5.432934676656159,0.009738249415673939
-5.423234147188034,0.009828051632785354
-5.413533617719909,0.009919577969909447
-5.403833088251785,0.010012858794166973
-5.39413255878366,0.010107922417567737
-5.384432029315535,0.010204795039488944
-5.37473149984741,0.010303500701850866
-5.365030970379285,0.010404061256983173
-5.35533044091116,0.010506496348064137
-5.3456299114430355,0.010610823401906064
-5.3359293819749105,0.010717057633756931
-5.3262288525067865,0.01082521206368606
-5.3165283230386615,0.010935297544027072
-5.306827793570537,0.01104732279726261
-5.297127264102412,0.01116129446365339
-5.287426734634287,0.01127721715784165
-5.277726205166162,0.011395093533594646
-5.268025675698037,0.011514924355800128
-5.258325146229912,0.011636708578781496
-5.248624616761788,0.01176044342996787
-5.238924087293663,0.011886124497932993
-5.229223557825538,0.012013745823805842
-5.219523028357413,0.012143299995057762
-5.209822498889288,0.012274778240684084
-5.200121969421163,0.012408170526820788
-5.190421439953038,0.012543465651872539
-5.180720910484913,0.012680651340273165
-5.171020381016789,0.012819714334053826
-5.161319851548664,0.012960640481458055
-5.151619322080539,0.013103414821913661
-5.141918792612414,0.013248021666750381
-5.132218263144289,0.013394444675135812
-5.1225177336761645,0.013542666924790836
-5.1128172042080395,0.013692670977138471
-5.103116674739915,0.013844438936633213
-5.0934161452717905,0.013997952504113632
-5.083715615803666,0.01415319302411466
-5.074015086335541,0.014310141526168649
-5.064314556867416,0.014468778760212419
-5.054614027399291,0.014629085226302345
-5.044913497931166,0.014791041198918112
-5.035212968463041,0.014954626746206135
-5.025512438994916,0.015119821744578363
-5.015811909526792,0.01528660588913562
-5.006111380058667,0.015454958700430028
-4.996410850590542,0.015624859528114978
-4.986710321122417,0.015796287552055185
-4.977009791654292,0.015969221781480296
-4.967309262186167,0.016143641052769175
-4.957608732718042,0.016319524026437427
-4.947908203249917,0.016496849183884273
-4.938207673781793,0.01667559482441762
-4.928507144313668,0.0168557390630378
-4.918806614845543,0.017037259829405668
-4.909106085377418,0.01722013486836202
-4.8994055559092935,0.017404341742296388
-4.889705026441169,0.017589857835588953
-4.880004496973044,0.017776660361269996
-4.870303967504919,0.017964726369958158
-4.860603438036795,0.018154032761053027
-4.85090290856867,0.018344556296071905
