Values,Density
-10.356111151408484,3.878336819362893e-6
-10.345597096710158,3.873927321526582e-6
-10.33508304201183,3.8753501353794295e-6
-10.324568987313503,3.882603231336601e-6
-10.314054932615175,3.8956911470738875e-6
-10.303540877916848,3.91462498529338e-6
-10.29302682321852,3.939422415999427e-6
-10.282512768520194,3.97010768324324e-6
-10.271998713821866,4.006711616530434e-6
-10.26148465912354,4.049271646697217e-6
-10.250970604425211,4.097831825963794e-6
-10.240456549726884,4.15244285294214e-6
-10.229942495028556,4.213162101709966e-6
-10.21942844033023,4.280053655769667e-6
-10.208914385631902,4.353188346017944e-6
-10.198400330933575,4.432643793614299e-6
-10.187886276235247,4.518504456998973e-6
-10.17737222153692,4.61086168357383e-6
-10.166858166838592,4.7098137658241335e-6
-10.156344112140266,4.815466001686919e-6
-10.145830057441938,4.927930759762722e-6
-10.135316002743611,5.047327548482472e-6
-10.124801948045283,5.173783090298145e-6
-10.114287893346956,5.3074313998147105e-6
-10.10377383864863,5.4484138666960336e-6
-10.093259783950302,5.596879342872896e-6
-10.082745729251975,5.752984234205782e-6
-10.072231674553647,5.91689259667183e-6
-10.06171761985532,6.088776236867766e-6
-10.051203565156992,6.268814817217416e-6
-10.040689510458666,6.457195965106632e-6
-10.030175455760338,6.654115387097481e-6
-10.019661401062011,6.859776987006971e-6
-10.009147346363683,7.074392988843867e-6
-9.998633291665357,7.298184063956768e-6
-9.988119236967028,7.53137946252788e-6
-9.977605182268702,7.774217149806271e-6
-9.967091127570374,8.026943946442449e-6
-9.956577072872047,8.289815673379834e-6
-9.946063018173719,8.56309730117499e-6
-9.935548963475393,8.84706310361064e-6
-9.925034908777064,9.141996815932585e-6
-9.914520854078738,9.448191797187082e-6
-9.90400679938041,9.765951197154149e-6
-9.893492744682083,1.0095588127565858e-5
-9.882978689983755,1.043742583779414e-5
-9.872464635285429,1.0791797894656391e-5
-9.861950580587102,1.1159048366972705e-5
-9.851436525888774,1.1539532014023628e-5
-9.840922471190447,1.1933614478608617e-5
-9.83040841649212,1.234167248431858e-5
-9.819894361793793,1.2764094037143918e-5
-9.809380307095465,1.3201278631392926e-5
-9.798866252397138,1.3653637459568393e-5
-9.78835219769881,1.4121593627087125e-5
-9.777838143000483,1.4605582370593806e-5
-9.767324088302155,1.5106051280853994e-5
-9.756810033603829,1.5623460529717316e-5
-9.7462959789055,1.6158283101222644e-5
-9.735781924207174,1.6711005026766096e-5
-9.725267869508846,1.7282125624523562e-5
-9.71475381481052,1.7872157742824277e-5
-9.704239760112191,1.8481628007540815e-5
-9.693725705413865,1.9111077073615435e-5
-9.683211650715537,1.9761059880269664e-5
-9.67269759601721,2.0432145910477626e-5
-9.662183541318882,2.1124919454170756e-5
-9.651669486620555,2.183997987512164e-5
-9.641155431922227,2.2577941881939383e-5
-9.6306413772239,2.333943580258872e-5
-9.620127322525574,2.4125107862700817e-5
-9.609613267827246,2.4935620467392543e-5
-9.59909921312892,2.5771652486997546e-5
-9.588585158430591,2.663389954590291e-5
-9.578071103732265,2.7523074315282878e-5
-9.567557049033937,2.8439906808830177e-5
-9.55704299433561,2.9385144682208316e-5
-9.546528939637282,3.0359553535635065e-5
-9.536014884938956,3.1363917219476116e-5
-9.525500830240627,3.2399038143387984e-5
-9.514986775542301,3.346573758802548e-5
-9.504472720843973,3.45648560202401e-5
-9.493958666145646,3.569725341069901e-5
-9.483444611447318,3.686380955465231e-5
-9.472930556748992,3.8065424395154973e-5
-9.462416502050663,3.9303018349157344e-5
-9.451902447352337,4.0577532635878736e-5
-9.441388392654009,4.188992960784386e-5
-9.430874337955682,4.3241193083911125e-5
-9.420360283257354,4.463232868500734e-5
-9.409846228559028,4.6064364171351235e-5
-9.3993321738607,4.753834978225152e-5
-9.388818119162373,4.9055358577299686e-5
-9.378304064464047,5.061648677964791e-5
-9.367790009765718,5.2222854120720754e-5
-9.357275955067392,5.387560418648957e-5
-9.346761900369064,5.5575904765066235e-5
-9.336247845670737,5.73249481955803e-5
-9.325733790972409,5.912395171808705e-5
-9.315219736274083,6.097415782438257e-5
-9.304705681575754,6.287683460972542e-5
-9.294191626877428,6.483327612504626e-5
-9.2836775721791,6.684480272982959e-5
-9.273163517480773,6.891276144502332e-5
-9.262649462782445,7.103852630645268e-5
-9.252135408084118,7.32234987179661e-5
-9.24162135338579,7.546910780443237e-5
-9.231107298687464,7.777681076460074e-5
-9.220593243989136,8.01480932230013e-5
-9.21007918929081,8.258446958165581e-5
-9.199565134592481,8.50874833703088e-5
-9.189051079894154,8.765870759606421e-5
-9.178537025195826,9.029974509136432e-5
-9.1680229704975,9.30122288606474e-5
-9.157508915799172,9.579782242535081e-5
-9.146994861100845,9.865822016675001e-5
-9.136480806402519,0.00010159514766698531
-9.12596675170419,0.00010461036204757398
-9.115452697005864,0.00010770565230546316
-9.104938642307536,0.00011088283964620377
-9.09442458760921,0.00011414377781425022
-9.083910532910881,0.00011749035341996348
-9.073396478212555,0.00012092448626308894
-9.062882423514226,0.0001244481296528337
-9.0523683688159,0.00012806327072352854
-9.041854314117572,0.00013177193074661317
-9.031340259419245,0.00013557616543776298
-9.020826204720917,0.00013947806525979514
-9.01031215002259,0.0001434797557201585
-8.999798095324262,0.00014758339766374065
-8.989284040625936,0.0001517911875597907
-8.978769985927608,0.0001561053577834985
-8.968255931229281,0.0001605281768914782
-8.957741876530953,0.0001650619498909429
-8.947227821832627,0.00016970901850257435
-8.936713767134298,0.00017447176141648286
-8.926199712435972,0.00017935259454119744
-8.915685657737644,0.00018435397124542133
-8.905171603039317,0.00018947838259201658
-8.89465754834099,0.00019472835756436724
-8.884143493642663,0.00020010646328431277
-8.873629438944336,0.00020561530522214782
-8.863115384246008,0.00021125752739720036
-8.852601329547682,0.00021703581257014574
-8.842087274849353,0.00022295288242564764
-8.831573220151027,0.0002290114977455067
-8.821059165452699,0.00023521445857205872
-8.810545110754372,0.0002415646043613505
-8.800031056056044,0.0002480648141259909
-8.789517001357718,0.0002547180065672409
-8.77900294665939,0.0002615271401961612
-8.768488891961063,0.0002684952134434763
-8.757974837262735,0.00027562526475786455
-8.747460782564408,0.00028292037269245034
-8.73694672786608,0.000290383655979139
-8.726432673167754,0.000298018273590608
-8.715918618469425,0.00030582742478943935
-8.705404563771099,0.0003138143491645752
-8.69489050907277,0.0003219823266542325
-8.684376454374444,0.00033033467755552216
-8.673862399676116,0.0003388747625200838
-8.66334834497779,0.0003476059825358183
-8.652834290279463,0.00035653177889424835
-8.642320235581135,0.00036565563314312375
-8.631806180882808,0.00037498106702443324
-8.62129212618448,0.0003845116423970168
-8.610778071486154,0.00039425096114408583
-8.600264016787825,0.0004042026650647769
-8.589749962089499,0.00041437043575016626
-8.57923590739117,0.00042475799444293295
-8.568721852692844,0.000435369101880757
-8.558207797994516,0.000446207558123129
-8.54769374329619,0.00045727720236125825
-8.537179688597861,0.000468581912711073
-8.526665633899535,0.0004801256059888
-8.516151579201207,0.0004919122374692502
-8.50563752450288,0.0005039458006262385
-8.495123469804552,0.000516230326855255
-8.484609415106226,0.0005287698851780508
-8.474095360407897,0.0005415685819288945
-8.463581305709571,0.0005546305604224996
-8.453067251011243,0.0005679600006032281
-8.442553196312916,0.0005815611186756795
-8.432039141614588,0.0005954381667162374
-8.421525086916262,0.0006095954322655082
-8.411011032217935,0.0006240372379017322
-8.400496977519607,0.0006387679407947569
-8.38998292282128,0.0006537919322404215
-8.379468868122952,0.0006691136371756389
-8.368954813424626,0.0006847375136736036
-8.358440758726298,0.0007006680524192549
-8.347926704027971,0.0007169097761650666
-8.337412649329643,0.0007334672391666689
-8.326898594631317,0.0007503450265986423
-8.316384539932988,0.0007675477539502863
-8.305870485234662,0.0007850800664012292
-8.295356430536334,0.0008029466381769897
-8.284842375838007,0.0008211521718844393
-8.274328321139679,0.000839701397827102
-8.263814266441353,0.0008585990733002815
-8.253300211743024,0.0008778499818662218
-8.242786157044698,0.0008974589326089851
-8.23227210234637,0.0009174307593695762
-8.221758047648043,0.0009377703199607381
-8.211243992949715,0.0009584824953621065
-8.200729938251389,0.0009795721888954249
-8.19021588355306,0.0010010443253799014
-8.179701828854734,0.0010229038502681809
-8.169187774156407,0.0010451557287624639
-8.15867371945808,0.0010678049449114602
-8.148159664759753,0.0010908565006880495
-8.137645610061425,0.0011143154150476935
-8.127131555363098,0.0011381867229681738
-8.11661750066477,0.001162475474470264
-8.106103445966443,0.001187186733620173
-8.095589391268115,0.0012123255775134739
-8.085075336569789,0.001237897095240863
-8.07456128187146,0.001263906386836257
-8.064047227173134,0.0012903585622070874
-8.053533172474806,0.0013172587400473506
-8.04301911777648,0.0013446120467334541
-8.032505063078151,0.0013724236152035194
-8.021991008379825,0.0014006985838199678
-8.011476953681496,0.0014294420952161461
-8.00096289898317,0.001458659295127008
-7.990448844284843,0.00148835533120453
-7.979934789586515,0.0015185353518177617
-7.969420734888188,0.0015492045048384668
-7.958906680189861,0.0015803679364122646
-7.948392625491533,0.0016120307897158981
-7.937878570793206,0.0016441982037009792
-7.927364516094879,0.001676875311824839
-7.916850461396551,0.0017100672407685262
-7.906336406698224,0.0017437791091428553
-7.895822351999897,0.0017780160261826891
-7.885308297301569,0.001812783090430075
-7.874794242603242,0.0018480853884065727
-7.864280187904915,0.0018839279932756983
-7.853766133206587,0.0019203159634952672
-7.84325207850826,0.0019572543414611188
-7.832738023809933,0.0019947481521418514
-7.822223969111605,0.002032802401705829
-7.811709914413279,0.0020714220761406522
-7.8011958597149516,0.002110612139865681
-7.790681805016624,0.0021503775343385836
-7.780167750318297,0.0021907231766558643
-7.7696536956199695,0.002231653958148709
-7.759139640921642,0.0022731747429741477
-7.748625586223315,0.0023152903667025835
-7.7381115315249875,0.002358005634902258
-7.72759747682666,0.002401325321721026
-7.717083422128333,0.002445254168466527
-7.7065693674300055,0.0024897968821851347
-7.696055312731678,0.0025349581342404325
-7.685541258033351,0.0025807425588920303
-7.6750272033350235,0.002627154751875185
-7.664513148636696,0.0026741992689819933
-7.653999093938369,0.0027218806246452646
-7.6434850392400415,0.002770203290525
-7.632970984541714,0.0028191716940989863
-7.622456929843387,0.0028687902172577556
-7.6119428751450595,0.002919063194904723
-7.601428820446732,0.0029699949135625365
-7.590914765748405,0.0030215896099858135
-7.5804007110500775,0.003073851469781519
-7.569886656351751,0.0031267846260376784
-7.559372601653424,0.003180393157960658
-7.548858546955096,0.00323468108952257
-7.538344492256769,0.003289652388118799
-7.527830437558442,0.003345310963237057
-7.517316382860114,0.003401660665137953
-7.506802328161787,0.0034587052835488236
-7.49628827346346,0.003516448546370647
-7.485774218765132,0.0035748941183992257
-7.475260164066805,0.0036340456000616356
-7.464746109368478,0.0036939065261679285
-7.45423205467015,0.0037544803646797713
-7.443717999971823,0.003815770515495955
-7.433203945273496,0.0038777803092561115
-7.422689890575168,0.003940513006162936
-7.412175835876841,0.0040039717948239205
-7.401661781178514,0.0040681597911132504
-7.391147726480186,0.004133080037054488
-7.380633671781859,0.00419873549972497
-7.370119617083532,0.004265129070182274
-7.359605562385204,0.004332263562413987
-7.349091507686877,0.004400141712310774
-7.33857745298855,0.0044687661766642
-7.328063398290223,0.004538139532189151
-7.317549343591896,0.004608264274572384
-7.307035288893569,0.004679142817547095
-7.296521234195241,0.004750777491994632
-7.286007179496914,0.004823170545073802
-7.275493124798587,0.004896324139378385
-7.264979070100259,0.004970240352123487
-7.254465015401932,0.005044921174361404
-7.243950960703605,0.005120368510227384
-7.233436906005277,0.005196584176216108
-7.22292285130695,0.005273569900489186
-7.2124087966086226,0.005351327322214357
-7.201894741910295,0.005429857990936941
-7.191380687211968,0.005509163365984011
-7.1808666325136405,0.005589244815901479
-7.170352577815313,0.005670103617925278
-7.159838523116986,0.005751740957486329
-7.1493244684186585,0.005834157927750134
-7.138810413720331,0.0059173555291915005
-7.128296359022004,0.006001334669204373
-7.1177823043236765,0.006086096161747703
-7.107268249625349,0.006171640727027183
-7.096754194927022,0.0062579689912136876
-7.086240140228695,0.006345081486198305
-7.075726085530368,0.006432978649384537
-7.065212030832041,0.006521660823517923
-7.054697976133713,0.006611128256553245
-7.044183921435386,0.006701381101559631
-7.033669866737059,0.00679241941666367
-7.023155812038731,0.006884243165030997
-7.012641757340404,0.006976852214886212
-7.002127702642077,0.007070246339571479
-6.991613647943749,0.007164425217643742
-6.981099593245422,0.007259388433011092
-6.970585538547095,0.00735513547510778
-6.960071483848767,0.007451665739108396
-6.94955742915044,0.007548978526181041
-6.939043374452113,0.007647073043779609
-6.928529319753785,0.007745948405975024
-6.918015265055458,0.00784560363382562
-6.907501210357131,0.007946037655786355
-6.896987155658803,0.008047249308156996
-6.886473100960476,0.008149237335569083
-6.875959046262149,0.008252000391511442
-6.865444991563821,0.008355537038894318
-6.854930936865494,0.008459845750651796
-6.844416882167168,0.008564924910382276
-6.83390282746884,0.00867077281302696
-6.823388772770513,0.008777387665585893
-6.812874718072186,0.008884767587871422
-6.802360663373858,0.008992910613298788
-6.791846608675531,0.0091018146897134
-6.781332553977204,0.009211477680254647
-6.770818499278876,0.009321897364255611
-6.760304444580549,0.009433071438178663
-6.749790389882222,0.00954499751658617
-6.739276335183894,0.009657673133146041
-6.728762280485567,0.009771095741671752
-6.71824822578724,0.009885262717196207
-6.707734171088912,0.010000171357078997
-6.697220116390585,0.010115818882146506
-6.686706061692258,0.010232202437864464
-6.67619200699393,0.010349319095542129
-6.665677952295603,0.010467165853567821
-6.655163897597276,0.01058573963867488
-6.644649842898948,0.010705037307237705
-6.634135788200621,0.010825055646597092
-6.6236217335022936,0.010945791376414112
-6.613107678803966,0.011067241150052198
-6.60259362410564,0.01118940155598623
-6.592079569407312,0.011312269119238445
-6.581565514708985,0.011435840302839922
-6.571051460010658,0.011560111509317354
-6.56053740531233,0.01168507908220397
-6.550023350614003,0.011810739307574066
-6.539509295915676,0.011937088415600223
-6.528995241217348,0.012064122582132398
-6.518481186519021,0.012191837930298207
-6.507967131820694,0.012320230532123288
-6.497453077122366,0.012449296410171206
-6.486939022424039,0.012579031539201709
-6.476424967725712,0.01270943184784681
-6.465910913027384,0.012840493220303374
-6.455396858329057,0.012972211498041829
-6.44488280363073,0.013104582481529566
-6.434368748932402,0.01323760193196845
-6.423854694234075,0.013371265573045507
-6.413340639535748,0.01350556909269551
-6.40282658483742,0.01364050814487502
-6.392312530139093,0.01377607835134648
-6.381798475440766,0.013912275303471808
-6.371284420742438,0.014049094564013993
-6.360770366044112,0.014186531668946435
-6.350256311345785,0.014324582129268286
-6.339742256647457,0.014463241432825496
-6.32922820194913,0.014602505046136124
-6.318714147250803,0.014742368416219183
-6.308200092552475,0.014882826972425774
-6.297686037854148,0.01502387612827193
-6.287171983155821,0.015165511283271819
-6.276657928457493,0.01530772782477056
-6.266143873759166,0.015450521129775312
-6.255629819060839,0.015593886566784277
-6.245115764362511,0.015737819497612077
-6.234601709664184,0.01588231527921064
-6.224087654965857,0.016027369265485036
-6.213573600267529,0.01617297680910257
-6.203059545569202,0.01631913326329501
-6.192545490870875,0.016465833983652194
-6.182031436172547,0.016613074329906805
-6.17151738147422,0.016760849667708612
-6.161003326775893,0.016909155370388097
-6.150489272077565,0.01705798682070783
-6.139975217379238,0.017207339412600966
-6.129461162680911,0.017357208552896075
-6.118947107982584,0.0175075896630272
-6.108433053284257,0.017658478180728458
-6.0979189985859295,0.017809869561712006
-6.087404943887602,0.01796175928132906
-6.076890889189275,0.018114142836212353
-6.0663768344909474,0.018267015745900114
-6.05586277979262,0.01842037355443993
-6.045348725094293,0.018574211831972196
-6.034834670395965,0.018728526176292212
-6.024320615697638,0.018883312214390033
-6.013806560999311,0.01903856560396769
-6.003292506300983,0.01919428203493259
-5.992778451602656,0.019350457230866702
-5.982264396904329,0.019507086950470653
-5.971750342206001,0.019664166988982212
-5.961236287507674,0.019821693179568303
-5.950722232809347,0.019979661394690033
-5.940208178111019,0.020138067547440207
-5.929694123412692,0.020296907592852305
-5.919180068714365,0.020456177529181024
-5.908666014016037,0.020615873399153054
-5.89815195931771,0.02077599129118811
-5.887637904619383,0.020936527340589525
-5.877123849921056,0.02109747773070375
-5.866609795222729,0.021258838694048515
-5.856095740524402,0.021420606513409025
-5.845581685826074,0.021582777522901896
-5.835067631127747,0.021745348109006184
-5.82455357642942,0.021908314711561426
-5.814039521731092,0.022071673824732182
-5.803525467032765,0.022235421997938456
-5.793011412334438,0.022399555836752263
-5.78249735763611,0.022564072003759532
-5.771983302937783,0.022728967219387268
-5.761469248239456,0.022894238262695703
-5.750955193541128,0.02305988197213524
-5.740441138842801,0.02322589524626785
-5.729927084144474,0.02339227504445296
-5.719413029446146,0.023559018387497403
-5.708898974747819,0.023726122358269534
-5.698384920049492,0.02389358410227723
-5.687870865351164,0.024061400828209782
-5.677356810652837,0.02422956980844354
-5.66684275595451,0.024398088379511275
-5.656328701256182,0.024566953942535365
-5.645814646557855,0.02473616396362452
-5.6353005918595285,0.024905715974234376
-5.624786537161201,0.025075607571491878
-5.614272482462874,0.025245836418483308
-5.6037584277645465,0.02541640024450651
-5.593244373066219,0.025587296845286957
-5.582730318367892,0.025758524083157992
-5.5722162636695645,0.02593007988720551
-5.561702208971237,0.026101962253377037
-5.55118815427291,0.026274169244555362
-5.5406740995745825,0.026446698990597383
-5.530160044876255,0.026619549688337615
-5.519645990177928,0.02679271960155749
-5.5091319354796005,0.02696620706092002
-5.498617880781273,0.0271400104638704
-5.488103826082946,0.027314128274502972
-5.4775897713846184,0.02748855902339456
-5.467075716686291,0.027663301307404773
-5.456561661987964,0.02783835378944344
-5.446047607289636,0.028013715198205818
-5.435533552591309,0.028189384327875662
-5.425019497892982,0.028365360037796602
-5.414505443194654,0.028541641252112546
-5.403991388496327,0.028718226959377112
-5.393477333798001,0.02889511621213275
-5.382963279099673,0.029072308126460156
-5.372449224401346,0.029249801881498092
-5.361935169703019,0.029427596718934353
-5.351421115004691,0.02960569194246835
-5.340907060306364,0.029784086917245628
-5.330393005608037,0.02996278106926509
-5.319878950909709,0.030141773884759283
-5.309364896211382,0.03032106490954823
-5.298850841513055,0.03050065374836753
-5.288336786814727,0.030680540064171147
-5.2778227321164,0.03086072357740937
-5.267308677418073,0.031041204065282768
-5.256794622719745,0.03122198136097235
-5.246280568021418,0.03140305535284671
-5.235766513323091,0.03158442598364695
-5.225252458624763,0.03176609324964924
-5.214738403926436,0.03194805719980659
-5.204224349228109,0.03213031793486944
-5.193710294529781,0.03231287560648645
-5.183196239831454,0.032495730416285576
-5.172682185133127,0.032678882614936226
-5.162168130434799,0.03286233250119297
-5.151654075736473,0.03304608042092164
