Values,Density
-9.408987127188198,1.1481356258780107e-7
-9.399168546916705,1.1699960376920782e-7
-9.389349966645213,1.214019098305652e-7
-9.379531386373719,1.2808116255091928e-7
-9.369712806102227,1.371289567175804e-7
-9.359894225830734,1.4866848532801846e-7
-9.350075645559242,1.6285545109684385e-7
-9.340257065287748,1.798792002849492e-7
-9.330438485016256,1.999640783789669e-7
-9.320619904744763,2.2337100127889364e-7
-9.310801324473271,2.503992387464793e-7
-9.300982744201777,2.813884036612091e-7
-9.291164163930285,3.16720640089474e-7
-9.281345583658792,3.568230016876006e-7
-9.2715270033873,4.021700108353121e-7
-9.261708423115806,4.53286386425944e-7
-9.251889842844314,5.107499272405391e-7
-9.242071262572821,5.751945352239218e-7
-9.23225268230133,6.473133610240822e-7
-9.222434102029835,7.278620513945233e-7
-9.212615521758343,8.176620766159326e-7
-9.20279694148685,9.176041114861144e-7
-9.192978361215358,1.0286514423168969e-6
-9.183159780943864,1.1518433688378904e-6
-9.173341200672372,1.2882985660350732e-6
-9.16352262040088,1.439218369231332e-6
-9.153704040129387,1.605889941330707e-6
-9.143885459857893,1.7896892783864082e-6
-9.1340668795864,1.992084006738337e-6
-9.124248299314909,2.2146359213714994e-6
-9.114429719043416,2.4590032126625694e-6
-9.104611138771922,2.7269423253928338e-6
-9.09479255850043,3.0203093923982655e-6
-9.084973978228938,3.3410611812514923e-6
-9.075155397957445,3.6912554927555352e-6
-9.065336817685951,4.073050946703724e-6
-9.055518237414459,4.488706090221423e-6
-9.045699657142967,4.940577764128359e-6
-9.035881076871474,5.431118662264228e-6
-9.02606249659998,5.962874019421055e-6
-9.016243916328488,6.538477367028228e-6
-9.006425336056996,7.1606452960622236e-6
-8.996606755785503,7.832171171439153e-6
-8.98678817551401,8.555917746370587e-6
-8.976969595242517,9.33480862995266e-6
-8.967151014971025,1.01718185680829e-5
-8.957332434699532,1.106996250476236e-5
-8.94751385442804,1.2032283399385918e-5
-8.937695274156546,1.3061838785027521e-5
-8.927876693885054,1.4161686062316714e-5
-8.918058113613561,1.5334866536568723e-5
-8.90823953334207,1.6584388215497986e-5
-8.898420953070575,1.791320740098662e-5
-8.888602372799083,1.9324209119124178e-5
-8.87878379252759,2.0820186449999056e-5
-8.868965212256098,2.2403818832216274e-5
-8.859146631984604,2.4077649433152173e-5
-8.849328051713112,2.5844061692061743e-5
-8.83950947144162,2.770525515891943e-5
-8.829690891170127,2.966322076775746e-5
-8.819872310898633,3.171971569948702e-5
-8.810053730627141,3.3876238003825374e-5
-8.800235150355649,3.61340011648531e-5
-8.790416570084156,3.849390880931135e-5
-8.780597989812662,4.0956529767998545e-5
-8.77077940954117,4.3522073713279236e-5
-8.760960829269678,4.6190367605548205e-5
-8.751142248998185,4.896083318843211e-5
-8.741323668726691,5.18324657809207e-5
-8.731505088455199,5.480381461648795e-5
-8.721686508183707,5.7872964983007175e-5
-8.711867927912214,6.103752241454902e-5
-8.70204934764072,6.429459918531541e-5
-8.692230767369228,6.764080334753161e-5
-8.682412187097736,7.107223054779455e-5
-8.672593606826243,7.458445884405904e-5
-8.66277502655475,7.817254673109231e-5
-8.652956446283257,8.183103456409907e-5
-8.643137866011765,8.555394955060691e-5
-8.633319285740273,8.933481445731056e-5
-8.623500705468778,9.316666015198385e-5
-8.613682125197286,9.704204207443279e-5
-8.603863544925794,0.00010095306069694138
-8.594044964654302,0.00010489138600524445
-8.584226384382807,0.00010884828599482671
-8.574407804111315,0.00011281465914183414
-8.564589223839823,0.00011678107077233574
-8.55477064356833,0.00012073779321436842
-8.544952063296838,0.0001246748495810912
-8.535133483025344,0.000128582060994073
-8.525314902753852,0.00013244909701957616
-8.51549632248236,0.00013626552905315545
-8.505677742210867,0.00014002088635435214
-8.495859161939373,0.00014370471439835789
-8.486040581667881,0.000147306635181612
-8.476222001396389,0.00015081640908873317
-8.466403421124896,0.00015422399790444505
-8.456584840853402,0.00015751962852935536
-8.44676626058191,0.00016069385694252383
-8.436947680310418,0.0001637376319371664
-8.427129100038925,0.00016664235814679504
-8.417310519767431,0.00016939995787213988
-8.407491939495939,0.00017200293121838114
-8.397673359224447,0.00017444441405478975
-8.387854778952955,0.00017671823331709413
-8.37803619868146,0.00017881895918554075
-8.368217618409968,0.00018074195368803295
-8.358399038138476,0.00018248341529988193
-8.348580457866984,0.00018404041913791525
-8.33876187759549,0.0001854109523752659
-8.328943297323997,0.0001865939445388383
-8.319124717052505,0.00018758929238752928
-8.309306136781013,0.0001883978791093685
-8.299487556509519,0.0001890215876204221
-8.289668976238026,0.0001894633077918345
-8.279850395966534,0.0001897269374801433
-8.270031815695042,0.0001898173772838553
-8.260213235423548,0.000189740518999032
-8.250394655152055,0.00018950322779606732
-8.240576074880563,0.00018911331819073882
-8.23075749460907,0.00018857952393034477
-8.220938914337577,0.00018791146196475011
-8.211120334066084,0.00018711959071852913
-8.201301753794592,0.00018621516292470497
-8.1914831735231,0.00018521017332286116
-8.181664593251606,0.00018411730156401435
-8.171846012980113,0.00018294985070018907
-8.162027432708621,0.00018172168167058383
-8.152208852437129,0.00018044714422401145
-8.142390272165635,0.00017914100474427513
-8.132571691894142,0.0001778183714643347
-8.12275311162265,0.00017649461757412999
-8.112934531351158,0.00017518530273816224
-8.103115951079666,0.00017390609354841005
-8.093297370808171,0.0001726726834421037
-8.08347879053668,0.00017150071261290076
-8.073660210265187,0.00017040568844173612
-8.063841629993695,0.00016940290696366989
-8.0540230497222,0.0001685073758753118
-8.044204469450708,0.00016773373957266677
-8.034385889179216,0.0001670962066889492
-8.024567308907724,0.00016660848057940478
-8.01474872863623,0.00016628369317611344
-8.004930148364737,0.00016613434260580665
-7.995111568093245,0.00016617223493482075
-7.985292987821752,0.00016640843037146746
-7.9754744075502595,0.00016685319422239664
-7.965655827278766,0.0001675159528629483
-7.955837247007274,0.00016840525494491929
-7.946018666735781,0.00016952873802576762
-7.9362000864642885,0.00017089310076565806
-7.926381506192795,0.0001725040807985037
-7.916562925921303,0.0001743664383443283
-7.90674434564981,0.00017648394559032637
-7.896925765378318,0.00017885938183015773
-7.887107185106824,0.00018149453431121065
-7.877288604835332,0.00018439020470405187
-7.867470024563839,0.0001875462210698814
-7.857651444292347,0.00019096145516882268
-7.8478328640208534,0.00019463384491659463
-7.838014283749361,0.0001985604217664104
-7.828195703477868,0.00020273734276221936
-7.818377123206376,0.0002071599269819792
-7.8085585429348825,0.00021182269606329768
-7.79873996266339,0.00021671941848024762
-7.788921382391897,0.00022184315721982678
-7.779102802120405,0.00022718632048742207
-7.7692842218489115,0.00023274071505448996
-7.759465641577419,0.00023849760184981375
-7.749647061305926,0.0002444477533848424
-7.739828481034434,0.00025058151259610417
-7.730009900762941,0.00025688885268504436
-7.720191320491448,0.00026335943753280286
-7.710372740219955,0.00026998268227109573
-7.700554159948463,0.0002767478135944218
-7.6907355796769705,0.0002836439294086994
-7.680916999405477,0.0002906600574202889
-7.671098419133985,0.0002977852122875678
-7.661279838862492,0.00030500845097082563
-7.651461258591,0.0003123189259398168
-7.641642678319506,0.000319705935919682
-7.631824098048014,0.00032715897388268383
-7.622005517776521,0.00033466777202086073
-7.612186937505029,0.00034222234346645286
-7.602368357233535,0.00034981302055825045
-7.592549776962043,0.0003574304894882578
-7.58273119669055,0.0003650658211980552
-7.572912616419058,0.00037271049843207865
-7.5630940361475645,0.00038035643889457876
-7.553275455876072,0.0003879960144947264
-7.543456875604579,0.0003956220667056011
-7.533638295333087,0.0004032279181013024
-7.5238197150615935,0.0004108073801769932
-7.514001134790101,0.0004183547575942609
-7.504182554518608,0.0004258648490330537
-7.494363974247116,0.00043333294486692236
-7.484545393975623,0.00044075482191284834
-7.47472681370413,0.0004481267355400803
-7.464908233432637,0.0004554454094514125
-7.455089653161145,0.0004627080234773859
-7.445271072889652,0.00046991219974860596
-7.435452492618159,0.0004770559876309706
-7.425633912346666,0.0004841378478250627
-7.415815332075174,0.0004911566360446852
-7.405996751803681,0.000498111586696881
-7.396178171532188,0.000505002296990173
-7.386359591260695,0.0005118287118975121
-7.376541010989203,0.000518591110394602
-7.36672243071771,0.0005252900933849225
-7.356903850446217,0.0005319265737078124
-7.347085270174724,0.0005385017686060437
-7.337266689903232,0.0005450171950060721
-7.327448109631739,0.0005514746679346795
-7.3176295293602465,0.0005578763023627725
-7.307810949088753,0.0005642245187297799
-7.297992368817261,0.0005705220523606822
-7.288173788545768,0.0005767719669428593
-7.2783552082742755,0.0005829776721814166
-7.268536628002783,0.0005891429457007893
-7.25871804773129,0.0005952719592062228
-7.248899467459798,0.0006013693088636439
-7.239080887188305,0.0006074400497983988
-7.229262306916812,0.0006134897345563585
-7.219443726645319,0.0006195244553104662
-7.209625146373827,0.0006255508895396389
-7.199806566102334,0.0006315763488469184
-7.189987985830841,0.0006376088305294104
-7.180169405559348,0.0006436570714570787
-7.170350825287856,0.0006497306037663297
-7.160532245016363,0.0006558398118257716
-7.15071366474487,0.0006619959898874588
-7.140895084473377,0.0006682113997952613
-7.131076504201885,0.0006744993280892626
-7.121257923930392,0.0006808741418132674
-7.111439343658899,0.0006873513423092427
-7.101620763387406,0.0006939476162665104
-7.091802183115914,0.0007006808832807319
-7.081983602844421,0.0007075703391760807
-7.0721650225729285,0.0007146364943465509
-7.062346442301435,0.0007219012063845176
-7.052527862029943,0.0007293877062824333
-7.04270928175845,0.0007371206175214341
-7.0328907014869575,0.0007451259673931059
-7.023072121215464,0.0007534311899430879
-7.013253540943972,0.0007620651199736414
-7.003434960672479,0.0007710579775972622
-6.9936163804009865,0.0007804413428955589
-6.983797800129493,0.0007902481203056894
-6.973979219858001,0.000800512492429746
-6.964160639586508,0.0008112698630404098
-6.954342059315016,0.0008225567891386766
-6.944523479043522,0.0008344109020050269
-6.93470489877203,0.0008468708172731793
-6.924886318500537,0.0008599760341460351
-6.915067738229045,0.0008737668239629688
-6.9052491579575515,0.0008882841084197415
-6.895430577686059,0.0009035693278306109
-6.885611997414566,0.0009196642999101253
-6.875793417143074,0.0009366110696378231
-6.8659748368715805,0.0009544517508493112
-6.856156256600088,0.000973228360274093
-6.846337676328595,0.00099298264481233
-6.836519096057103,0.001013755902908195
-6.82670051578561,0.0010355888009344436
-6.816881935514117,0.0010585211855572226
-6.807063355242625,0.0010825918930907029
-6.797244774971132,0.0011078385568883433
-6.7874261946996395,0.0011342974138440684
-6.777607614428146,0.0011620031110945866
-6.767789034156654,0.0011909885140241698
-6.757970453885161,0.0012212845166736266
-6.7481518736136685,0.0012529198556475126
-6.738333293342175,0.0012859209285975095
-6.728514713070683,0.0013203116183365384
-6.71869613279919,0.0013561131236048752
-6.708877552527698,0.0013933437974735304
-6.699058972256204,0.0014320189943225346
-6.689240391984712,0.0014721509262835342
-6.679421811713219,0.0015137485299787847
-6.669603231441727,0.001556817344330316
-6.659784651170233,0.0016013594001488183
-6.649966070898741,0.0016473731221476069
-6.640147490627248,0.0016948532439584275
-6.630328910355756,0.0017437907366589823
-6.6205103300842625,0.0017941727512527745
-6.61069174981277,0.0018459825754751857
-6.600873169541277,0.0018991996052325315
-6.591054589269785,0.00195379933091649
-6.5812360089982915,0.0020097533387745965
-6.571417428726799,0.0020670293274564384
-6.561598848455306,0.0021255911398005665
-6.551780268183814,0.002185398809871727
-6.541961687912321,0.0022464086252089836
-6.532143107640828,0.0023085732041976774
-6.522324527369335,0.002371841588434294
-6.512505947097843,0.0024361593499110067
-6.50268736682635,0.002501468712808992
-6.492868786554857,0.0025677086896509164
-6.483050206283364,0.002634815231527525
-6.473231626011872,0.002702721392078552
-6.463413045740379,0.0027713575048717576
-6.453594465468886,0.0028406513737893758
-6.443775885197393,0.0029105284759932803
-6.433957304925901,0.0029809121770014713
-6.424138724654408,0.0030517239573665395
-6.414320144382915,0.003122883650402721
-6.404501564111423,0.0031943096903588215
-6.39468298383993,0.003265919370382394
-6.384864403568438,0.0033376291095639256
-6.3750458232969445,0.003409354728288301
-6.365227243025452,0.003481011731055521
-6.355408662753959,0.003552515595863049
-6.345590082482467,0.0036237820691683714
-6.3357715022109735,0.003694727465373901
-6.325952921939481,0.0037652689696964572
-6.316134341667988,0.0038353249432031937
-6.306315761396496,0.0039048152287134465
-6.296497181125003,0.003973661456186085
-6.28667860085351,0.004041787346131583
-6.276860020582017,0.004109119009514366
-6.267041440310525,0.004175585242539789
-6.257222860039032,0.0042411178146569955
-6.247404279767539,0.004305651748055174
-6.237585699496046,0.0043691255868861315
-6.227767119224554,0.004431481654414215
-6.217948538953061,0.004492666296277609
-6.208129958681568,0.004552630108042568
-6.198311378410075,0.0046113281452468576
-6.188492798138583,0.004668720114163095
-6.17867421786709,0.004724770541565768
-6.168855637595597,0.004779448921859029
-6.159037057324104,0.004832729840019003
-6.149218477052612,0.004884593068920463
-6.139399896781119,0.004935023639757199
-6.1295813165096265,0.004984011884425859
-6.119762736238133,0.005031553448924669
-6.109944155966641,0.005077649277020268
-6.100125575695148,0.005122305563656504
-6.0903069954236555,0.005165533677816072
-6.080488415152162,0.0052073500547998985
-6.07066983488067,0.005247776058153589
-6.060851254609177,0.005286837811747002
-6.0510326743376845,0.005324566002795548
-6.041214094066191,0.00536099565689957
-6.031395513794699,0.005396165886465527
-6.021576933523206,0.005430119614158306
-6.011758353251714,0.005462903273312666
-6.00193977298022,0.005494566487499564
-5.992121192708728,0.005525161731698824
-5.982302612437236,0.005554743977764853
-5.972484032165743,0.005583370327089512
-5.96266545189425,0.005611099633555258
-5.952846871622757,0.005637992120036123
-5.943028291351265,0.005664108991834825
-5.933209711079772,0.005689512050543693
-5.923391130808279,0.005714263311878912
-5.913572550536786,0.0057384246310625275
-5.903753970265294,0.0057620573393125755
-5.893935389993801,0.005785221894946735
-5.884116809722308,0.005807977552509495
-5.874298229450815,0.005830382053197688
-5.864479649179323,0.005852491339683533
-5.85466106890783,0.0058743592982185445
-5.8448424886363375,0.005896037530652482
-5.835023908364844,0.0059175751587117915
-5.825205328093352,0.005939018662566338
-5.815386747821859,0.005960411755362374
-5.8055681675503665,0.005981795295028087
-5.795749587278873,0.00600320723426181
-5.785931007007381,0.006024682609201576
-5.776112426735888,0.006046253566848833
-5.766293846464396,0.006067949430887306
-5.756475266192902,0.006089796805102207
-5.74665668592141,0.006111819713172694
-5.736838105649917,0.006134039773184417
-5.727019525378425,0.006156476404798031
-5.717200945106931,0.006179147066614002
-5.707382364835439,0.006202067520903491
-5.697563784563946,0.00622525212253057
-5.687745204292454,0.006248714128580158
-5.6779266240209605,0.006272466024929478
-5.668108043749468,0.0062965198657657356
-5.658289463477975,0.006320887621859908
-5.648470883206483,0.0063455815332592175
-5.6386523029349895,0.00637061446196341
-5.628833722663497,0.00639600024009937
-5.619015142392004,0.0064217540091122795
-5.609196562120512,0.006447892545543894
-5.599377981849019,0.006474434569073889
-5.589559401577526,0.006501401028655257
-5.579740821306033,0.0065288153627801266
-5.569922241034541,0.006556703730163758
-5.5601036607630485,0.006585095207432367
-5.550285080491555,0.006614021950739561
-5.540466500220063,0.006643519318613131
-5.53064791994857,0.006673625953746931
-5.520829339677078,0.006704383821894637
-5.511010759405584,0.006735838206488711
-5.501192179134092,0.00676803765809759
-5.491373598862599,0.006801033898334065
-5.481555018591107,0.006834881678342274
-5.471736438319613,0.0068696385925036095
-5.461917858048121,0.006905364848516681
-5.452099277776628,0.006942122995510719
-5.442280697505136,0.006979977612342515
-5.4324621172336425,0.007018994958700278
-5.42264353696215,0.007059242592082727
-5.412824956690657,0.007100788954140295
-5.403006376419165,0.007143702930246696
-5.3931877961476715,0.00718805338651108
-5.383369215876179,0.007233908688740999
-5.373550635604686,0.007281336208117781
-5.363732055333194,0.007330401818547334
-5.353913475061701,0.0073811693907985185
-5.344094894790208,0.007433700288635452
-5.334276314518715,0.0074880528721872255
-5.324457734247223,0.0075442820137799765
-5.31463915397573,0.007602438631380231
-5.304820573704237,0.007662569244665534
-5.295001993432744,0.007724715558550881
-5.285183413161252,0.00778891407875816
-5.275364832889759,0.007855195763723781
-5.265546252618266,0.0079235857167997
-5.255727672346773,0.007994102922318294
-5.245909092075281,0.008066760028667803
-5.236090511803788,0.008141563181064963
-5.226271931532295,0.008218511906220527
-5.216453351260802,0.008297599050579585
-5.20663477098931,0.00837881077328266
-5.196816190717817,0.00846212659444721
-5.1869976104463245,0.008547519498814103
-5.177179030174831,0.00863495609424858
-5.167360449903339,0.008724396824035554
-5.157541869631846,0.008815796231372061
-5.1477232893603535,0.008909103273939322
-5.13790470908886,0.009004261685942405
-5.128086128817368,0.009101210384538268
-5.118267548545876,0.00919988391714369
-5.1084489682743826,0.009300212945722319
-5.09863038800289,0.009402124763803792
-5.088811807731397,0.009505543841689525
-5.078993227459905,0.009610392395051686
-5.069174647188412,0.009716590971939231
-5.059356066916919,0.009824059053066608
-5.049537486645426,0.009932715660181463
-5.039718906373934,0.010042479967282688
-5.029900326102441,0.010153271909497292
-5.020081745830948,0.010265012784512605
-5.010263165559455,0.010377625841607481
-5.000444585287963,0.010491036853522479
-4.99062600501647,0.010605174666656225
-4.980807424744977,0.010719971725366439
-4.970988844473484,0.010835364566487383
-4.961170264201992,0.010951294280544463
-4.951351683930499,0.011067706936546866
-4.941533103659006,0.011184553967664101
-4.931714523387513,0.011301792515537794
-4.921895943116021,0.01141938573143703
-4.912077362844528,0.01153730303293125
-4.9022587825730355,0.011655520315219207
-4.892440202301542,0.011774020116713073
-4.88262162203005,0.011892791738924073
-4.872803041758557,0.012011831321126775
-4.8629844614870645,0.012131141870686372
-4.853165881215571,0.012250733250311929
-4.843347300944079,0.012370622123845503
-4.833528720672586,0.01249083186250551
-4.823710140401094,0.012611392413772418
-4.8138915601296,0.012732340135330224
-4.804072979858108,0.012853717596658789
-4.794254399586615,0.012975573351005725
-4.784435819315123,0.013097961680555477
-4.7746172390436294,0.013220942317653018
-4.764798658772137,0.013344580144936388
-4.754980078500644,0.013468944877183656
-4.745161498229152,0.01359411072759029
-4.7353429179576585,0.013720156061066344
-4.725524337686166,0.013847163036980487
-4.715705757414673,0.01397521724358743
-4.705887177143181,0.014104407326158072
-4.696068596871688,0.014234824610597005
-4.686250016600195,0.01436656272408106
-4.676431436328703,0.014499717213995312
-4.66661285605721,0.014634385166182448
-4.6567942757857175,0.014770664823265015
-4.646975695514224,0.014908655203552824
-4.637157115242732,0.015048455720817349
-4.627338534971239,0.015190165805003058
-4.6175199546997465,0.015333884523761367
-4.607701374428253,0.015479710204538392
-4.597882794156761,0.015627740056826336
-4.588064213885268,0.015778069794106883
