Values,Density
-8.989037098940813,1.1802118496384573e-7
-8.980425627993139,1.1996363737110105e-7
-8.971814157045465,1.2377476601987958e-7
-8.963202686097791,1.2949903313574929e-7
-8.954591215150115,1.3720242532377913e-7
-8.945979744202441,1.469728959646588e-7
-8.937368273254767,1.5892094308578297e-7
-8.928756802307094,1.7318032065338773e-7
-8.92014533135942,1.8990888388248361e-7
-8.911533860411746,2.0928956735721815e-7
-8.90292238946407,2.3153149486532243e-7
-8.894310918516396,2.5687121978090754e-7
-8.885699447568722,2.855740936225093e-7
-8.877087976621048,3.179357614402356e-7
-8.868476505673375,3.5428377984092485e-7
-8.8598650347257,3.9497935561128017e-7
-8.851253563778025,4.4041919999848744e-7
-8.842642092830351,4.910374943600804e-7
-8.834030621882677,5.473079612017262e-7
-8.825419150935003,6.097460347326278e-7
-8.81680767998733,6.789111229310585e-7
-8.808196209039655,7.554089535427577e-7
-8.799584738091982,8.398939937009908e-7
-8.790973267144306,9.330719334121884e-7
-8.782361796196632,1.0357022203894006e-6
-8.773750325248958,1.1486006337296795e-6
-8.765138854301284,1.272641881933101e-6
-8.75652738335361,1.4087622090680485e-6
-8.747915912405936,1.557961992693091e-6
-8.73930444145826,1.7213083144951291e-6
-8.730692970510587,1.899937483867964e-6
-8.722081499562913,2.09505749276806e-6
-8.71347002861524,2.3079503795840617e-6
-8.704858557667565,2.539974477229999e-6
-8.696247086719891,2.792566520681654e-6
-8.687635615772217,3.0672435862226337e-6
-8.679024144824542,3.3656048357357145e-6
-8.670412673876868,3.6893330358184033e-6
-8.661801202929194,4.040195823137296e-6
-8.65318973198152,4.4200466839366525e-6
-8.644578261033846,4.830825617793905e-6
-8.635966790086172,5.274559452995639e-6
-8.627355319138497,5.753361782203856e-6
-8.618743848190823,6.2694324861592345e-6
-8.610132377243149,6.825056814494966e-6
-8.601520906295475,7.422603992005266e-6
-8.592909435347801,8.064525320689085e-6
-8.584297964400127,8.753351748554128e-6
-8.575686493452451,9.491690877928252e-6
-8.567075022504778,1.0282223387275496e-5
-8.558463551557104,1.1127698843285748e-5
-8.54985208060943,1.203093088259367e-5
-8.541240609661756,1.2994791744848561e-5
-8.532629138714082,1.4022206142322947e-5
-8.524017667766408,1.5116144454871075e-5
-8.515406196818732,1.6279615243288564e-5
-8.506794725871059,1.7515657077637266e-5
-8.498183254923385,1.882732968238568e-5
-8.48957178397571,2.0217704404737013e-5
-8.480960313028037,2.168985401746707e-5
-8.472348842080363,2.3246841873857072e-5
-8.463737371132687,2.4891710436549734e-5
-8.455125900185013,2.662746920902839e-5
-8.44651442923734,2.8457082104124242e-5
-8.437902958289666,3.0383454288824586e-5
-8.429291487341992,3.240941855253178e-5
-8.420680016394318,3.4537721250669715e-5
-8.412068545446644,3.677100788083542e-5
-8.403457074498968,3.911180835674145e-5
-8.394845603551294,4.156252204779321e-5
-8.38623413260362,4.41254026605992e-5
-8.377622661655947,4.6802543040443643e-5
-8.369011190708273,4.95958599789491e-5
-8.360399719760599,5.25070791148074e-5
-8.351788248812923,5.553772002113346e-5
-8.34317677786525,5.868908157443623e-5
-8.334565306917575,6.196222770303832e-5
-8.325953835969901,6.535797361586354e-5
-8.317342365022228,6.887687261156118e-5
-8.308730894074554,7.251920357074755e-5
-8.300119423126878,7.628495923231405e-5
-8.291507952179204,8.017383535436446e-5
-8.28289648123153,8.418522085820571e-5
-8.274285010283856,8.83181890511455e-5
-8.265673539336182,9.257149002052378e-5
-8.257062068388509,9.694354428651947e-5
-8.248450597440835,0.00010143243779656375
-8.239839126493159,0.00010603591833799179
-8.231227655545485,0.00011075139343829179
-8.222616184597811,0.00011557592981572987
-8.214004713650137,0.0001205062544338178
-8.205393242702463,0.0001255387572049226
-8.19678177175479,0.00013066949537826264
-8.188170300807114,0.00013589419963798118
-8.17955882985944,0.00014120828192609822
-8.170947358911766,0.0001466068449943081
-8.162335887964092,0.000152084693677384
-8.153724417016418,0.00015763634786973828
-8.145112946068744,0.00016325605717502998
-8.13650147512107,0.00016893781718621114
-8.127890004173395,0.00017467538734415762
-8.119278533225721,0.0001804623103082454
-8.110667062278047,0.0001862919327646909
-8.102055591330373,0.00019215742758418083
-8.0934441203827,0.00019805181723305887
-8.084832649435025,0.00020396799832929748
-8.07622117848735,0.00020989876722780952
-8.067609707539676,0.00021583684650910723
-8.058998236592002,0.00022177491223769217
-8.050386765644328,0.00022770562185022358
-8.041775294696654,0.00023362164252550745
-8.03316382374898,0.00023951567988471497
-8.024552352801305,0.00024538050686358963
-8.01594088185363,0.0002512089925966279
-8.007329410905957,0.0002569941311498261
-7.998717939958283,0.0002627290699361997
-7.990106469010609,0.0002684071376497629
-7.981494998062934,0.0002740218715518648
-7.97288352711526,0.00027956704394653824
-7.964272056167586,0.00028503668768439013
-7.955660585219912,0.0002904251205366877
-7.947049114272238,0.00029572696828745137
-7.938437643324564,0.00030093718639576496
-7.92982617237689,0.00030605108008747387
-7.921214701429215,0.0003110643227427392
-7.912603230481541,0.00031597297245427973
-7.903991759533867,0.00032077348664016165
-7.895380288586193,0.0003254627346046305
-7.886768817638519,0.0003300380079514099
-7.878157346690845,0.00033449702876545574
-7.86954587574317,0.00033883795549073236
-7.860934404795496,0.00034305938644396683
-7.852322933847822,0.00034716036091830826
-7.843711462900147,0.0003511403578433849
-7.8350999919524735,0.0003549992919836256
-7.8264885210048,0.0003587375076697036
-7.817877050057125,0.00036235577007354657
-7.809265579109451,0.00036585525405275453
-7.800654108161777,0.0003692375306044637
-7.792042637214103,0.0003725045509848793
-7.783431166266428,0.00037565862856541593
-7.7748196953187545,0.0003787024185134603
-7.766208224371081,0.0003816388953980757
-7.757596753423406,0.00038447132883943523
-7.748985282475732,0.0003872032573337945
-7.740373811528058,0.00038983846040072405
-7.731762340580383,0.00039238092921415127
-7.723150869632709,0.0003948348358915961
-7.7145393986850355,0.00039720450163024165
-7.705927927737361,0.0003994943638898484
-7.697316456789687,0.0004017089428345951
-7.688704985842013,0.0004038528072573521
-7.680093514894338,0.00040593054021774184
-7.671482043946664,0.0004079467046369062
-7.66287057299899,0.00040990580909635704
-7.654259102051316,0.000411812274096008
-7.645647631103642,0.00041367039903125204
-7.637036160155968,0.0004154843301514804
-7.628424689208294,0.0004172580297638409
-7.619813218260619,0.00041899524694727136
-7.611201747312945,0.0004206994900373129
-7.602590276365271,0.0004223740011418207
-7.5939788054175965,0.00042402173293864566
-7.585367334469923,0.0004256453280007356
-7.576755863522249,0.00042724710088440105
-7.568144392574574,0.00042882902320262595
-7.5595329216269,0.00043039271189580525
-7.550921450679226,0.0004319394208909229
-7.542309979731551,0.0004334700363284611
-7.5336985087838775,0.00043498507551164266
-7.525087037836204,0.0004364846897143889
-7.51647556688853,0.00043796867096005526
-7.507864095940855,0.00043943646285741524
-7.499252624993181,0.00044088717555574447
-7.490641154045507,0.00044231960485063837
-7.482029683097832,0.0004437322554459804
-7.4734182121501584,0.00044512336834496907
-7.4648067412024846,0.00044649095231365536
-7.45619527025481,0.00044783281932866785
-7.447583799307136,0.00044914662388887815
-7.438972328359462,0.0004504299060387655
-7.430360857411787,0.0004516801379192527
-7.421749386464113,0.0004528947736302832
-7.413137915516439,0.0004540713021587749
-7.404526444568765,0.00045520730309473335
-7.395914973621091,0.00045630050483003626
-7.387303502673417,0.00045734884490684696
-7.378692031725743,0.00045835053215548
-7.370080560778068,0.00045930411023925176
-7.361469089830394,0.00046020852220044796
-7.35285761888272,0.0004610631755819698
-7.344246147935046,0.0004618680076830411
-7.335634676987372,0.0004626235504909971
-7.327023206039698,0.0004633309948216058
-7.318411735092023,0.0004639922531903002
-7.309800264144349,0.00046461002093062687
-7.301188793196675,0.0004651878350761876
-7.2925773222490005,0.0004657301305199925
-7.283965851301327,0.0004662422929723412
-7.275354380353653,0.00046673070824340603
-7.266742909405978,0.0004672028073896533
-7.258131438458304,0.00046766710727509306
-7.24951996751063,0.0004681332461183062
-7.240908496562956,0.0004686120136139964
-7.232297025615281,0.00046911537524359963
-7.2236855546676075,0.0004696564904146114
-7.215074083719934,0.00047024972409819097
-7.206462612772259,0.00047091065166631526
-7.197851141824585,0.0004716560566638793
-7.189239670876911,0.0004725039212881187
-7.180628199929236,0.00047347340938607005
-7.172016728981562,0.0004745848418212579
-7.1634052580338885,0.00047585966410261147
-7.154793787086214,0.00047732040621263866
-7.14618231613854,0.00047899063461532773
-7.137570845190866,0.0004808948964707626
-7.128959374243191,0.00048305865612807675
-7.120347903295517,0.0004855082240159381
-7.111736432347843,0.0004882706780953822
-7.1031249614001695,0.0004913737780861906
-7.094513490452495,0.000494845872724125
-7.085902019504821,0.0004987158003515102
-7.077290548557147,0.0005030127831879903
-7.068679077609472,0.0005077663156716058
-7.060067606661798,0.0005130060473022193
-7.051456135714124,0.0005187616604601557
-7.0428446647664495,0.0005250627437110578
-7.034233193818776,0.0005319386611446026
-7.025621722871102,0.0005394184183301759
-7.017010251923427,0.0005475305255028973
-7.008398780975753,0.000556302858625405
-6.999787310028079,0.0005657625189946633
-6.991175839080404,0.0005759356920897307
-6.9825643681327305,0.0005868475063748975
-6.973952897185057,0.0005985218927916946
-6.965341426237383,0.000610981445685714
-6.956729955289708,0.0006242472859264762
-6.948118484342034,0.0006383389269832649
-6.93950701339436,0.0006532741447242358
-6.930895542446685,0.0006690688517042012
-6.9222840714990115,0.0006857369767015349
-6.913672600551338,0.0007032903502547077
-6.905061129603663,0.0007217385969363363
-6.896449658655989,0.0007410890350834604
-6.887838187708315,0.0007613465846810215
-6.87922671676064,0.0007825136840688042
-6.870615245812966,0.000804590216110345
-6.8620037748652924,0.0008275734444274242
-6.853392303917618,0.0008514579602635286
-6.844780832969944,0.0008762356404954268
-6.83616936202227,0.0009018956172639875
-6.827557891074596,0.0009284242596428222
-6.818946420126921,0.0009558051677075094
-6.810334949179247,0.0009840191793080637
-6.801723478231573,0.0010130443897843032
-6.793112007283899,0.0010428561847977036
-6.784500536336225,0.0010734272863837761
-6.775889065388551,0.0011047278122584072
-6.767277594440876,0.0011367253483370514
-6.758666123493202,0.0011693850343511636
-6.750054652545528,0.0012026696623698382
-6.7414431815978535,0.0012365397879573585
-6.73283171065018,0.001270953853620589
-6.724220239702506,0.0013058683241226254
-6.715608768754831,0.0013412378331641899
-6.706997297807157,0.0013770153408585468
-6.698385826859483,0.001413152301355039
-6.689774355911809,0.0014495988398948855
-6.6811628849641345,0.0014863039385177895
-6.672551414016461,0.001523215629575184
-6.663939943068787,0.0015602811961467587
-6.655328472121112,0.0015974473784055934
-6.646717001173438,0.0016346605849280923
-6.638105530225764,0.0016718671079038983
-6.629494059278089,0.0017090133411659066
-6.620882588330415,0.0017460459999325334
-6.6122711173827415,0.0017829123411326083
-6.603659646435067,0.0018195603831711617
-6.595048175487393,0.001855939123987488
-6.586436704539719,0.0018919987562607456
-6.577825233592044,0.0019276908786275513
-6.56921376264437,0.0019629687017965634
-6.560602291696696,0.001997787248469639
-6.5519908207490225,0.002032103546016705
-6.543379349801348,0.0020658768108920743
-6.534767878853674,0.0020990686238310154
-6.526156407906,0.0021316430949235906
-6.517544936958325,0.0021635670177252778
-6.508933466010651,0.00219481001163563
-6.500321995062977,0.0022253446518523045
-6.491710524115303,0.0022551465862879656
-6.483099053167629,0.0022841946389236508
-6.474487582219955,0.0023124708991616415
-6.46587611127228,0.00233996079683115
-6.457264640324606,0.0023666531625961343
-6.448653169376932,0.00239254027360672
-6.440041698429257,0.002417617884333147
-6.4314302274815836,0.002441885242613841
-6.42281875653391,0.002465345091042932
-6.414207285586236,0.00248800365391226
-6.405595814638561,0.002509870610010913
-6.396984343690887,0.0025309590516670744
-6.388372872743213,0.002551285430496579
-6.379761401795538,0.0025708694903939
-6.3711499308478645,0.002589734188368907
-6.362538459900191,0.0026079056038910437
-6.353926988952516,0.0026254128374561263
-6.345315518004842,0.0026422878991350066
-6.336704047057168,0.002658565587899481
-6.328092576109493,0.0026742833625503257
-6.319481105161819,0.002689481205090772
-6.3108696342141455,0.002704201477401513
-6.302258163266471,0.00271848877207554
-6.293646692318797,0.0027323897582664444
-6.285035221371123,0.002745953023390589
-6.276423750423449,0.002759228911503073
-6.267812279475774,0.0027722693591398805
-6.2592008085281,0.00278512772938392
-6.2505893375804265,0.002797858644873013
-6.241977866632752,0.0028105178204220374
-6.233366395685078,0.002823161895881747
-6.224754924737404,0.0028358482698033058
-6.216143453789729,0.0028486349344211616
-6.207531982842055,0.0028615803124076205
-6.198920511894381,0.002874743095795107
-6.1903090409467065,0.002888182087400058
-6.181697569999033,0.002901956045025595
-6.173086099051359,0.002916123528661667
-6.164474628103684,0.002930742750847482
-6.15586315715601,0.002945871430308328
-6.147251686208336,0.0029615666489335125
-6.138640215260662,0.002977884712116792
-6.1300287443129875,0.0029948810124457415
-6.121417273365314,0.0030126098966927447
-6.11280580241764,0.003031124536036863
-6.104194331469965,0.00305047679942562
-6.095582860522291,0.003070717129974648
-6.086971389574617,0.0030918944242984215
-6.078359918626942,0.003114055914666436
-6.0697484476792685,0.0031372470538895544
-6.061136976731595,0.0031615114028557567
-6.05252550578392,0.0031868905206573093
-6.043914034836246,0.003213423857279487
-6.035302563888572,0.003241148648854173
-6.026691092940897,0.003270099815520384
-6.018079621993223,0.003300309861976773
-6.009468151045549,0.0033318087808564324
-6.0008566800978755,0.0033646239591042675
-5.992245209150201,0.0033987800875863133
-5.983633738202527,0.0034342990742133274
-5.975022267254853,0.0034711999609105975
-5.966410796307178,0.0035094988448174805
-5.957799325359504,0.003549208804147406
-5.94918785441183,0.0035903398291850116
-5.940576383464156,0.0036328987589377116
-5.931964912516482,0.0036768892239961567
-5.923353441568808,0.003722311596188796
-5.914741970621133,0.0037691629456398363
-5.906130499673459,0.0038174370058592063
-5.897519028725785,0.0038671241475000126
-5.8889075577781105,0.003918211361424329
-5.880296086830437,0.003970682251708071
-5.871684615882763,0.004024517039202535
-5.863073144935089,0.004079692576243793
-5.854461673987414,0.004136182373068169
-5.84585020303974,0.004193956636449107
-5.837238732092066,0.004252982321018459
-5.8286272611443914,0.0043132231936759986
-5.8200157901967176,0.004374639911421464
-5.811404319249044,0.004437190112868387
-5.802792848301369,0.004500828523615446
-5.794181377353695,0.004565507075562455
-5.785569906406021,0.004631175040163532
-5.776958435458346,0.004697779175510504
-5.768346964510672,0.004765263887038575
-5.7597354935629985,0.0048335714015399255
-5.751124022615324,0.004902641954066562
-5.74251255166765,0.004972413987195776
-5.733901080719976,0.005042824362027999
-5.725289609772302,0.005113808580181894
-5.716678138824627,0.005185301015953406
-5.708066667876953,0.005257235157708521
-5.6994551969292795,0.005329543857489833
-5.690843725981605,0.005402159587733265
-5.682232255033931,0.005475014703914919
-5.673620784086257,0.0055480417118801036
-5.665009313138582,0.005621173538546975
-5.656397842190908,0.005694343804628923
-5.647786371243234,0.005767487097979629
-5.63917490029556,0.005840539246138085
-5.630563429347886,0.005913437586632476
-5.621951958400212,0.0059861212335974145
-5.613340487452537,0.006058531339264185
-5.604729016504863,0.0061306113489015025
-5.596117545557189,0.006202307247813901
-5.587506074609515,0.006273567799042901
-5.5788946036618405,0.006344344770469676
-5.570283132714167,0.006414593150076338
-5.561671661766493,0.006484271348195789
-5.553060190818818,0.00655334138565873
-5.544448719871144,0.006621769066834946
-5.53583724892347,0.006689524136661592
-5.527225777975795,0.006756580420852809
-5.5186143070281215,0.006822915948593028
-5.510002836080448,0.006888513057127992
-5.501391365132773,0.006953358477783473
-5.492779894185099,0.007017443403059398
-5.484168423237425,0.007080763534566773
-5.47555695228975,0.007143319111694138
-5.466945481342076,0.007205114921010141
-5.4583340103944025,0.007266160286524611
-5.449722539446728,0.007326469041047295
-5.441111068499054,0.007386059478992185
-5.43249959755138,0.007444954291083523
-5.423888126603706,0.007503180481519996
-5.415276655656031,0.007560769268249655
-5.406665184708357,0.00761775596709552
-5.398053713760683,0.007674179860555222
-5.389442242813009,0.007730084052169324
-5.380830771865335,0.0077855153074215
-5.372219300917661,0.007840523882188463
-5.363607829969986,0.007895163339808296
-5.354996359022312,0.007949490357875011
-5.346384888074638,0.008003564525898257
-5.3377734171269635,0.008057448134990668
-5.32916194617929,0.008111205960758178
-5.320550475231616,0.008164905040575108
-5.311939004283941,0.00821861444642271
-5.303327533336267,0.008272405054459453
-5.294716062388593,0.008326349312473285
-5.286104591440919,0.00838052100634129
-5.2774931204932445,0.0084349950265896
-5.268881649545571,0.008489847136109216
-5.260270178597897,0.008545153740038877
-5.251658707650222,0.008600991658777654
-5.243047236702548,0.008657437905036426
-5.234435765754874,0.008714569465778673
-5.225824294807199,0.008772463089840784
-5.2172128238595255,0.008831195081957044
-5.208601352911852,0.008890841103846955
-5.199989881964177,0.008951475982954775
-5.191378411016503,0.009013173529358768
-5.182766940068829,0.009076006361297111
-5.174155469121154,0.009140045739684775
-5.16554399817348,0.009205361411922634
-5.156932527225806,0.009272021465228441
-5.1483210562781325,0.009340092189646683
-5.139709585330458,0.00940963795082443
-5.131098114382784,0.00948072107257078
-5.12248664343511,0.009553401729148753
-5.113875172487435,0.009627737847185317
-5.105263701539761,0.00970378501701908
-5.096652230592087,0.009781596413247225
-5.088040759644413,0.009861222724174062
-5.079429288696739,0.009942712089810095
-5.070817817749065,0.01002611004801967
-5.06220634680139,0.01011145948836845
-5.053594875853716,0.010198800613178412
-5.044983404906042,0.010288170905261875
-5.0363719339583675,0.010379605101769539
-5.027760463010694,0.01047313517356089
-5.01914899206302,0.010568790309480892
-5.010537521115346,0.01066659690490853
-5.001926050167671,0.010766578553930756
-4.993314579219997,0.010868756044488023
-4.984703108272323,0.010973147355837369
-4.976091637324648,0.011079767657684501
-4.9674801663769745,0.01118862931034805
-4.958868695429301,0.011299741865337587
-4.950257224481626,0.011413112065752195
-4.941645753533952,0.011528743845937463
-4.933034282586278,0.011646638329877201
-4.924422811638603,0.011766793827840587
-4.915811340690929,0.011889205830856496
-4.9071998697432555,0.012013867002643635
-4.898588398795581,0.012140767168688523
-4.889976927847907,0.012269893302232006
-4.881365456900233,0.01240122950699828
-4.872753985952559,0.012534756996580123
-4.864142515004884,0.012670454070475918
-4.85553104405721,0.012808296086860921
-4.8469195731095365,0.01294825543226514
-4.838308102161862,0.013090301488420632
-4.829696631214188,0.013234400596635129
-4.821085160266514,0.013380516020141918
-4.812473689318839,0.013528607904968511
-4.803862218371165,0.01367863323995919
-4.795250747423491,0.01383054581667479
-4.7866392764758166,0.01398429618997924
-4.778027805528143,0.014139831640203621
-4.769416334580469,0.014297096137854364
-4.760804863632794,0.01445603031189971
