Values,Density
-5.932985772742033,2.2701409416181484e-7
-5.926970151690537,2.3418211173020786e-7
-5.920954530639041,2.4842902210386875e-7
-5.914938909587545,2.7007563191405737e-7
-5.908923288536049,2.9960284039787233e-7
-5.902907667484553,3.376577803193559e-7
-5.896892046433057,3.8506186636477757e-7
-5.890876425381561,4.4282073741186423e-7
-5.8848608043300645,5.121360726056956e-7
-5.878845183278568,5.944192507656432e-7
-5.872829562227072,6.913068111846776e-7
-5.866813941175576,8.04677659116404e-7
-5.86079832012408,9.366719422310155e-7
-5.854782699072584,1.0897115073627006e-6
-5.848767078021088,1.2665218213636642e-6
-5.842751456969592,1.4701552170370835e-6
-5.836735835918096,1.7040152981984136e-6
-5.8307202148665995,1.971882304385719e-6
-5.824704593815103,2.2779392050975567e-6
-5.818688972763607,2.626798258187346e-6
-5.812673351712111,3.023527727491482e-6
-5.806657730660615,3.473678418020043e-6
-5.800642109609119,3.9833096460439865e-6
-5.794626488557623,4.559014222471625e-6
-5.788610867506127,5.207941985913012e-6
-5.782595246454631,5.9378213879690556e-6
-5.7765796254031345,6.756978590732876e-6
-5.770564004351638,7.674353511427645e-6
-5.764548383300142,8.69951221338372e-6
-5.758532762248646,9.842655024794311e-6
-5.75251714119715,1.111461974828698e-5
-5.746501520145654,1.2526879314800343e-5
-5.740485899094158,1.4091533238011836e-5
-5.734470278042662,1.5821292233378186e-5
-5.728454656991166,1.772945538826981e-5
-5.7224390359396695,1.9829879301665188e-5
-5.716423414888173,2.213693865885623e-5
-5.710407793836677,2.466547776213031e-5
-5.704392172785181,2.7430752613685078e-5
-5.698376551733685,3.044836322915745e-5
-5.692360930682189,3.3734175960756924e-5
-5.686345309630693,3.730423571890462e-5
-5.680329688579197,4.117466810552896e-5
-5.674314067527701,4.536157160624395e-5
-5.6682984464762045,4.988090013121303e-5
-5.662282825424708,5.474833634878419e-5
-5.656267204373212,5.997915640985722e-5
-5.650251583321716,6.558808682457888e-5
-5.64423596227022,7.158915441365238e-5
-5.638220341218724,7.799553041446666e-5
-5.632204720167228,8.481936998100577e-5
-5.626189099115732,9.207164845928886e-5
-5.620173478064236,9.97619959590898e-5
-5.6141578570127395,0.00010789853186205477
-5.608142235961243,0.00011648770101349397
-5.602126614909747,0.00012553411342694498
-5.596110993858251,0.00013504038939539734
-5.590095372806756,0.00014500701193926636
-5.58407975175526,0.0001554321885307436
-5.578064130703764,0.00016631172401992272
-5.572048509652268,0.0001776389066375124
-5.5660328886007715,0.00018940440887688613
-5.560017267549275,0.00020159620495002056
-5.554001646497779,0.00021419950638050002
-5.547986025446283,0.00022719671713492331
-5.541970404394787,0.00024056740950875038
-5.535954783343291,0.0002542883217750702
-5.529939162291795,0.0002683333783752677
-5.523923541240299,0.0002826737331909912
-5.517907920188803,0.0002972778361763351
-5.5118922991373065,0.00031211152337056944
-5.50587667808581,0.00032713813004213443
-5.499861057034314,0.0003423186264515793
-5.493845435982818,0.00035761177545781675
-5.487829814931322,0.0003729743109473216
-5.481814193879826,0.00038836113582477183
-5.47579857282833,0.0004037255380899482
-5.469782951776834,0.0004190194233275324
-5.463767330725338,0.00043419356176367663
-5.4577517096738415,0.00044919784789798287
-5.451736088622345,0.0004639815706039968
-5.445720467570849,0.0004784936914968216
-5.439704846519353,0.0004926831293153196
-5.433689225467857,0.0005064990480299278
-5.427673604416361,0.0005198911463898045
-5.421657983364865,0.0005328099466457292
-5.415642362313369,0.000545207080236948
-5.409626741261873,0.0005570355683006678
-5.4036111202103765,0.0005682500949564691
-5.39759549915888,0.0005788072714245675
-5.391579878107384,0.000588665889157524
-5.385564257055888,0.0005977871602996267
-5.379548636004392,0.0006061349439214422
-5.373533014952896,0.0006136759566239235
-5.3675173939014,0.0006203799662470207
-5.361501772849904,0.0006262199675620347
-5.355486151798408,0.0006311723389654661
-5.3494705307469115,0.0006352169793295177
-5.343454909695415,0.0006383374242929889
-5.337439288643919,0.0006405209414025448
-5.331423667592423,0.0006417586036328755
-5.325408046540927,0.0006420453409295736
-5.319392425489431,0.0006413799695264115
-5.313376804437935,0.0006397651988979125
-5.307361183386439,0.0006372076163113083
-5.301345562334943,0.0006337176490467736
-5.2953299412834465,0.0006293095044609433
-5.28931432023195,0.0006240010881768607
-5.283298699180454,0.0006178139007947739
-5.277283078128958,0.0006107729136365786
-5.271267457077462,0.0006029064241568904
-5.265251836025966,0.0005942458917842786
-5.25923621497447,0.0005848257550873925
-5.253220593922974,0.0005746832313008876
-5.247204972871478,0.0005638580993883313
-5.2411893518199815,0.000552392467961911
-5.235173730768485,0.0005403305295257135
-5.229158109716989,0.0005277183026492285
-5.223142488665493,0.0005146033638161046
-5.217126867613997,0.0005010345708209435
-5.211111246562501,0.0004870617797039442
-5.205095625511005,0.00047273555731724287
-5.199080004459509,0.00045810689169972774
-5.193064383408013,0.00044322690250227226
-5.1870487623565165,0.00042814655374655286
-5.18103314130502,0.00041291637121383673
-5.175017520253524,0.0003975861667491268
-5.169001899202028,0.0003822047717240776
-5.162986278150532,0.0003668197818303756
-5.156970657099036,0.0003514773152765542
-5.15095503604754,0.0003362217863285451
-5.144939414996044,0.0003210956959816616
-5.138923793944548,0.0003061394413638001
-5.1329081728930515,0.00029139114526818485
-5.126892551841555,0.00027688650698523554
-5.120876930790059,0.0002626586753613075
-5.114861309738563,0.0002487381447587589
-5.108845688687067,0.00023515267432570874
-5.102830067635571,0.00022192723072039788
-5.096814446584075,0.00020908395416648073
-5.090798825532579,0.00019664214745562097
-5.084783204481083,0.00018461828726357155
-5.0787675834295865,0.00017302605690663192
-5.07275196237809,0.00016187639944682808
-5.066736341326594,0.00015117758985538216
-5.060720720275098,0.00014093532476699977
-5.054705099223602,0.00013115282821050261
-5.048689478172106,0.00012183097157889011
-5.04267385712061,0.00011296840600950181
-5.036658236069114,0.00010456170528375108
-5.030642615017618,9.660551731973527e-5
-5.0246269939661214,8.909272233226934e-5
-5.018611372914625,8.201459575113423e-5
-5.012595751863129,7.536097404708952e-5
-5.006580130811633,6.912042167993293e-5
-5.000564509760137,6.328039748748626e-5
-4.994548888708641,5.782741894189147e-5
-4.988533267657145,5.2747222835568264e-5
-4.982517646605649,4.802492109979434e-5
-4.9765020255541526,4.364515061509866e-5
-4.970486404502656,3.959221603122218e-5
-4.96447078345116,3.5850224779920836e-5
-4.958455162399664,3.240321362806345e-5
-4.952439541348168,2.923526628147155e-5
-4.946423920296672,2.6330621708856028e-5
-4.940408299245176,2.3673773005106202e-5
-4.93439267819368,2.1249556757051147e-5
-4.928377057142184,1.9043233005444637e-5
-4.9223614360906875,1.704055601731147e-5
-4.916345815039191,1.5227836188291821e-5
-4.910330193987695,1.3591993487264975e-5
-4.9043145729362,1.2120602935060398e-5
-4.898298951884704,1.0801932667427183e-5
-4.892283330833208,9.624975187007279e-6
-4.886267709781712,8.579472435737978e-6
-4.880252088730216,7.655935344415277e-6
-4.8742364676787195,6.845658516337061e-6
-4.868220846627223,6.140730699481789e-6
-4.862205225575727,5.53404167806526e-6
-4.856189604524231,5.0192861862294325e-6
-4.850173983472735,4.590965405136538e-6
-4.844158362421239,4.244386553886592e-6
-4.838142741369743,3.975661027590116e-6
-4.832127120318247,3.781701470847998e-6
-4.826111499266751,3.660218102705115e-6
-4.8200958782152545,3.609714535252051e-6
-4.814080257163758,3.6294832475788907e-6
-4.808064636112262,3.7196007946910248e-6
-4.802049015060766,3.8809227496869325e-6
-4.79603339400927,4.115078291420937e-6
-4.790017772957774,4.424464269528472e-6
-4.784002151906278,4.812238497985122e-6
-4.777986530854782,5.28231194998896e-6
-4.771970909803286,5.839339456165105e-6
-4.7659552887517895,6.488708440048618e-6
-4.759939667700293,7.236525165071894e-6
-4.753924046648797,8.089597916469127e-6
-4.747908425597301,9.055416498301994e-6
-4.741892804545805,1.0142127395300349e-5
-4.735877183494309,1.1358503929602415e-5
-4.729861562442813,1.2713910736247835e-5
-4.723845941391317,1.4218261889645256e-5
-4.717830320339821,1.5881972036849157e-5
-4.7118146992883245,1.771589993298378e-5
-4.705799078236828,1.9731283830266844e-5
-4.699783457185332,2.193966824694943e-5
-4.693767836133836,2.435282173361003e-5
-4.68775221508234,2.6982645362362556e-5
-4.681736594030844,2.9841071792893747e-5
-4.675720972979348,3.2939954909945446e-5
-4.669705351927852,3.629095018629208e-5
-4.663689730876356,3.990538609779937e-5
-4.6576741098248595,4.3794127099532065e-5
-4.651658488773363,4.796742886861022e-5
-4.645642867721867,5.2434786718146e-5
-4.639627246670371,5.720477829281728e-5
-4.633611625618875,6.228490186185182e-5
-4.627596004567379,6.76814117280683e-5
-4.621580383515883,7.33991524636754e-5
-4.615564762464387,7.944139387094928e-5
-4.609549141412891,8.580966872800966e-5
-4.6035335203613945,9.25036155305578e-5
-4.597517899309898,9.952082855752692e-5
-4.591502278258402,0.00010685671768521227
-4.585486657206906,0.00011450438042936995
-4.57947103615541,0.0001224544887182613
-4.573455415103914,0.00013069519288261278
-4.567439794052418,0.0001392120452846507
-4.561424173000922,0.00014798794590661218
-4.555408551949426,0.00015700311206472833
-4.5493929308979295,0.00016623507422131728
-4.543377309846433,0.00017565869962175157
-4.537361688794937,0.0001852462452020115
-4.531346067743441,0.000194967440881183
-4.525330446691945,0.00020478960399371998
-4.519314825640449,0.0002146777852168255
-4.513299204588953,0.0002245949459256033
-4.507283583537457,0.00023450216646452027
-4.501267962485961,0.00024435888436288855
-4.4952523414344645,0.0002541231610599659
-4.489236720382968,0.00026375197524036026
-4.483221099331472,0.0002732015404288343
-4.477205478279976,0.00028242764406003623
-4.47118985722848,0.00029138600483322175
-4.465174236176984,0.0003000326447913579
-4.459158615125488,0.00030832427223817516
-4.453142994073992,0.00031621867133154596
-4.447127373022496,0.0003236750939732899
-4.4411117519709995,0.0003306546494604018
-4.435096130919503,0.00033712068727390077
-4.429080509868007,0.0003430391683644646
-4.423064888816511,0.00034837902034530466
-4.417049267765015,0.00035311247213001135
-4.411033646713519,0.00035721536374766494
-4.405018025662023,0.0003606674273311933
-4.399002404610527,0.0003634525356041446
-4.392986783559031,0.00036555891457514634
-4.3869711625075345,0.0003669793175891988
-4.380955541456038,0.0003677111583658136
-4.374939920404542,0.0003677566011732696
-4.368924299353046,0.0003671226068307358
-4.36290867830155,0.0003658209337925002
-4.356893057250054,0.0003638680941340907
-4.350877436198558,0.00036128526482425934
-4.344861815147062,0.0003580981552178715
-4.338846194095566,0.0003543368322296137
-4.3328305730440695,0.00035003550514675977
-4.326814951992573,0.0003452322724935864
-4.320799330941077,0.0003399688337700706
-4.314783709889581,0.0003342901692465827
-4.308768088838085,0.0003282441912948286
-4.302752467786589,0.00032188137098053664
-4.296736846735093,0.0003152543438210081
-4.290721225683597,0.00030841749873243367
-4.284705604632101,0.0003014265542496485
-4.2786899835806045,0.0002943381261037686
-4.272674362529108,0.0002872092901903437
-4.266658741477612,0.0002800971448582949
-4.260643120426116,0.00027305837630579936
-4.25462749937462,0.00026614883068486417
-4.248611878323124,0.0002594230963023984
-4.242596257271628,0.0002529340990687741
-4.236580636220132,0.00024673271408762626
-4.230565015168636,0.00024086739601884345
-4.2245493941171395,0.0002353838305741427
-4.218533773065644,0.0002303246092432064
-4.212518152014148,0.0002257289290842315
-4.206502530962652,0.00022163231917185876
-4.200486909911156,0.00021806639505962677
-4.19447128885966,0.00021505864240323191
-4.188455667808164,0.00021263223069702478
-4.182440046756668,0.00021080585790009265
-4.1764244257051715,0.00020959362657477568
-4.170408804653675,0.00020900495202092612
-4.164393183602179,0.00020904450276720485
-4.158377562550683,0.0002097121736672307
-4.152361941499187,0.00021100309174824222
-4.146346320447691,0.00021290765485628207
-4.140330699396195,0.00021541160304572315
-4.134315078344699,0.00021849612255395515
-4.128299457293203,0.00022213798209015645
-4.1222838362417065,0.0002263097010416805
-4.11626821519021,0.00023097974905839438
-4.110252594138714,0.00023611277631940472
-4.104236973087218,0.00024166987360428605
-4.098221352035722,0.00024760886109390784
-4.092205730984226,0.0002538846046048933
-4.08619010993273,0.00026044935772445363
-4.080174488881234,0.0002672531280566749
-4.074158867829738,0.0002742440655234303
-4.0681432467782415,0.00028136887038625324
-4.062127625726745,0.00028857321837535976
-4.056112004675249,0.0002958022000326549
-4.050096383623753,0.0003030007711057152
-4.044080762572257,0.0003101142105763552
-4.038065141520761,0.00031708858267205653
-4.032049520469265,0.000323871199007536
-4.026033899417769,0.0003304110768348606
-4.020018278366273,0.00033665938925341726
-4.0140026573147765,0.0003425699031553084
-4.00798703626328,0.000348099400652082
-4.001971415211784,0.00035320807976166844
-3.995955794160288,0.00035785993022021886
-3.989940173108792,0.0003620230804348163
-3.983924552057296,0.0003656701117992472
-3.9779089310058,0.0003687783368664498
-3.9718933099543037,0.0003713300381931895
-3.9658776889028076,0.00037331266505321453
-3.9598620678513115,0.0003747189856405219
-3.9538464467998153,0.00037554719285209925
-3.9478308257483192,0.00037580096224441514
-3.941815204696823,0.0003754894612885088
-3.935799583645327,0.00037462730959757565
-3.929783962593831,0.00037323449036186923
-3.923768341542335,0.0003713362137871476
-3.9177527204908387,0.00036896273388375284
-3.9117370994393426,0.0003661491204917239
-3.9057214783878464,0.0003629349889360603
-3.8997058573363503,0.00035936419018372384
-3.8936902362848542,0.00035548446481001306
-3.887674615233358,0.0003513470644706841
-3.881658994181862,0.00034700634491237337
-3.875643373130366,0.00034251933483374006
-3.8696277520788698,0.00033794528512855193
-3.8636121310273737,0.00033334520319844296
-3.8575965099758776,0.0003287813771181529
-3.8515808889243814,0.0003243168944635777
-3.8455652678728853,0.0003200151605851874
-3.839549646821389,0.0003159394210132879
-3.833534025769893,0.00031215229253806626
-3.827518404718397,0.0003087153073004535
-3.821502783666901,0.0003056884739845375
-3.8154871626154048,0.00030312985990373423
-3.8094715415639087,0.0003010951974421333
-3.8034559205124125,0.0002996375179465799
-3.7974402994609164,0.00029880681577022436
-3.7914246784094203,0.00029864974475505256
-3.785409057357924,0.000299209349009049
-3.779393436306428,0.0003005248293936197
-3.773377815254932,0.0003026313466903234
-3.767362194203436,0.0003055598619727314
-3.7613465731519398,0.00030933701426785233
-3.7553309521004437,0.00031398503516345995
-3.7493153310489475,0.00031952169960504893
-3.7432997099974514,0.0003259603117277271
-3.7372840889459553,0.0003333097242015082
-3.731268467894459,0.00034157438921885407
-3.725252846842963,0.0003507544389440946
-3.719237225791467,0.00036084579296104605
-3.713221604739971,0.00037184029001445344
-3.707205983688475,0.0003837258411377442
-3.701190362636979,0.0003964866010998432
-3.695174741585483,0.00041010315499053103
-3.689159120533987,0.00042455271669554137
-3.6831434994824908,0.0004398093359958867
-3.6771278784309946,0.00045584411105919695
-3.6711122573794985,0.0004726254031734503
-3.6650966363280024,0.0004901190507103845
-3.6590810152765063,0.0005082885794919466
-3.65306539422501,0.0005270954069680131
-3.647049773173514,0.0005464990378994672
-3.641034152122018,0.000566457249566138
-3.635018531070522,0.0005869262648892926
-3.6290029100190258,0.0006078609122627046
-3.6229872889675296,0.0006292147713173489
-3.6169716679160335,0.0006509403043050352
-3.6109560468645374,0.0006729889732531658
-3.6049404258130413,0.000695311343524436
-3.598924804761545,0.0007178571748852241
-3.592909183710049,0.0007405755016516484
-3.586893562658553,0.0007634147039166581
-3.580877941607057,0.0007863225722682908
-3.5748623205555607,0.0008092463687668144
-3.5688466995040646,0.0008321328872559798
-3.5628310784525685,0.0008549285163227689
-3.5568154574010724,0.0008775793083913323
-3.5507998363495763,0.0009000310585232946
-3.54478421529808,0.0009222293964994783
-3.538768594246584,0.0009441198956681284
-3.532752973195088,0.0009656482018609814
-3.526737352143592,0.000986760185397729
-3.5207217310920957,0.0010074021188277247
-3.5147061100405996,0.001027520882590189
-3.5086904889891035,0.0010470642002253644
-3.5026748679376074,0.001065980904138471
-3.4966592468861113,0.0010842212322230904
-3.490643625834615,0.0011017371548957284
-3.484628004783119,0.001118482731298576
-3.478612383731623,0.0011344144926029136
-3.472596762680127,0.0011494918495133111
-3.4665811416286307,0.001163677520244006
-3.4605655205771346,0.001176937974438557
-3.4545498995256385,0.0011892438877439057
-3.4485342784741424,0.0012005706010555159
-3.4425186574226463,0.0012108985778318659
-3.43650303637115,0.0012202138523570508
-3.430487415319654,0.0012285084614207312
-3.424471794268158,0.0012357808516001798
-3.418456173216662,0.0012420362541809248
-3.4124405521651657,0.0012472870197481525
-3.4064249311136696,0.0012515529046277767
-3.4004093100621735,0.0012548613016547285
-3.3943936890106774,0.0012572474081996056
-3.3883780679591813,0.0012587543249850761
-3.382362446907685,0.0012594330799690686
-3.376346825856189,0.0012593425724483336
-3.370331204804693,0.0012585494335334672
-3.3643155837531973,0.0012571278002481596
-3.358299962701701,0.0012551590016939163
-3.352284341650205,0.0012527311569759964
-3.346268720598709,0.0012499386858854725
-3.340253099547213,0.001246881734652849
-3.3342374784957167,0.0012436655204066446
-3.3282218574442206,0.0012403995992624015
-3.3222062363927245,0.0012371970642076052
-3.3161906153412284,0.001234173680115953
-3.3101749942897323,0.0012314469642962528
-3.304159373238236,0.0012291352219360677
-3.29814375218674,0.0012273565466237937
-3.292128131135244,0.0012262277968045372
-3.286112510083748,0.0012258635595377015
-3.2800968890322517,0.0012263751132625192
-3.2740812679807556,0.0012278694014427292
-3.2680656469292595,0.0012304480289425067
-3.2620500258777634,0.0012342062927920908
-3.2560344048262673,0.0012392322586298916
-3.250018783774771,0.0012456058935726468
-3.244003162723275,0.0012533982655721955
-3.237987541671779,0.0012626708184826857
-3.231971920620283,0.0012734747311057238
-3.2259562995687867,0.001285850367410319
-3.2199406785172906,0.001299826823977431
-3.2139250574657945,0.0013154215794965955
-3.2079094364142984,0.0013326402498869683
-3.2018938153628023,0.0013514764513332927
-3.195878194311306,0.00137191177225174
-3.18986257325981,0.0013939158539503158
-3.183846952208314,0.0014174465785390337
-3.177831331156818,0.001442450361504817
-3.1718157101053217,0.00146886254530359
-3.1658000890538256,0.0014966078893547848
-3.1597844680023295,0.0015256011509645565
-3.1537688469508334,0.0015557477509621134
-3.1477532258993373,0.0015869445172108868
-3.141737604847841,0.0016190804986614144
-3.135721983796345,0.001652037842245168
-3.129706362744849,0.0016856927246576506
-3.123690741693353,0.0017199163309519483
-3.1176751206418567,0.001754575871842098
-3.1116594995903606,0.001789535631693446
-3.1056438785388645,0.0018246580393424718
-3.0996282574873684,0.0018598047541291927
-3.0936126364358723,0.0018948377598198927
-3.087597015384376,0.0019296204594450878
-3.08158139433288,0.0019640187644454302
-3.075565773281384,0.001997902171908669
-3.069550152229888,0.0020311448240650926
-3.0635345311783917,0.002063626544587501
-3.0575189101268956,0.002095233846591743
-3.0515032890753995,0.00212586090755589
-3.0454876680239034,0.0021554105066549385
-3.0394720469724072,0.0021837949202446424
-3.033456425920911,0.0022109367714148453
-3.027440804869415,0.0022367698296747516
-3.0214251838179194,0.0022612397569261476
