Values,Density
-5.637267561615243,2.3877783730807955e-7
-5.631438839457437,2.47930957736342e-7
-5.625610117299632,2.6425411919772657e-7
-5.6197813951418265,2.8812227501062715e-7
-5.613952672984022,3.200681322756971e-7
-5.608123950826216,3.6078957055263317e-7
-5.602295228668411,4.1115894811039055e-7
-5.596466506510605,4.722343120988626e-7
-5.590637784352801,5.452725207466536e-7
-5.584809062194995,6.317442805270357e-7
-5.57898034003719,7.333510884666161e-7
-5.573151617879384,8.520440616388569e-7
-5.5673228957215795,9.90044617343866e-7
-5.561494173563774,1.1498669548470897e-6
-5.555665451405969,1.3343422648193215e-6
-5.549836729248163,1.5466445732748024e-6
-5.544008007090358,1.7903180975498145e-6
-5.538179284932553,2.0693059637477695e-6
-5.532350562774748,2.3879801009651924e-6
-5.526521840616942,2.7511720913364623e-6
-5.520693118459137,3.1642047159108344e-6
-5.5148643963013315,3.632923893603923e-6
-5.509035674143527,4.163730667028354e-6
-5.503206951985721,4.763612838742937e-6
-5.497378229827916,5.440175818771653e-6
-5.49154950767011,6.201672189176666e-6
-5.485720785512306,7.057029447588015e-6
-5.4798920633545,8.015875338190925e-6
-5.474063341196695,9.088560137787693e-6
-5.468234619038889,1.0286175214202498e-5
-5.4624058968810845,1.1620567141823468e-5
-5.456577174723279,1.3104346617498486e-5
-5.450748452565474,1.475089139828939e-5
-5.444919730407668,1.6574342457872926e-5
-5.439091008249863,1.8589592551097878e-5
-5.433262286092058,2.0812266373102656e-5
-5.427433563934252,2.325869151427115e-5
-5.421604841776447,2.5945859434047674e-5
-5.415776119618641,2.8891375719729273e-5
-5.4099473974608365,3.211339894686541e-5
-5.404118675303031,3.5630567532939084e-5
-5.398289953145226,3.9461914061806463e-5
-5.39246123098742,4.362676666097923e-5
-5.386632508829615,4.8144637139504315e-5
-5.38080378667181,5.3035095730680215e-5
-5.374975064514005,5.831763244358232e-5
-5.369146342356199,6.401150519842747e-5
-5.363317620198394,7.013557510950758e-5
-5.357488898040589,7.670812947915134e-5
-5.351660175882784,8.374669327754214e-5
-5.345831453724978,9.126783010550074e-5
-5.340002731567173,9.928693386017026e-5
-5.3341740094093675,0.00010781801255532394
-5.328345287251563,0.00011687346597297893
-5.322516565093757,0.0001264638590493944
-5.316687842935952,0.00013659769310904457
-5.310859120778146,0.00014728117726477835
-5.3050303986203415,0.00015851800248631656
-5.299201676462536,0.00017030912099927006
-5.293372954304731,0.00018265253381700639
-5.287544232146925,0.00019554308931305636
-5.28171550998912,0.00020897229581269203
-5.275886787831315,0.00022292815122128273
-5.27005806567351,0.0002373949926976343
-5.264229343515704,0.00025235336933203054
-5.258400621357899,0.0002677799406966032
-5.252571899200094,0.0002836474039886287
-5.246743177042289,0.0002999244523029278
-5.240914454884483,0.00031657576632863893
-5.235085732726678,0.00033356204148340604
-5.2292570105688725,0.00035084005216913516
-5.223428288411068,0.00036836275446370734
-5.217599566253262,0.0003860794281522785
-5.211770844095456,0.00040393585856166037
-5.205942121937651,0.000421874558188394
-5.200113399779846,0.0004398350276181365
-5.194284677622041,0.00045775405472529146
-5.188455955464235,0.00047556605062440416
-5.18262723330643,0.0004932034203262783
-5.1767985111486245,0.0005105969655436818
-5.17096978899082,0.0005276763165947135
-5.165141066833014,0.0005443703898857372
-5.159312344675209,0.0005606078670164147
-5.153483622517403,0.0005763176911536133
-5.147654900359599,0.0005914295759756605
-5.141826178201793,0.0006058745221910536
-5.135997456043988,0.0006195853364085804
-5.130168733886182,0.0006324971469686691
-5.1243400117283775,0.0006445479112519512
-5.118511289570572,0.000655678908962655
-5.112682567412767,0.0006658352159380279
-5.106853845254961,0.0006749661531698162
-5.101025123097156,0.0006830257059321013
-5.095196400939351,0.0006899729081916578
-5.089367678781546,0.0006957721878327744
-5.08353895662374,0.0007003936686468953
-5.077710234465935,0.0007038134255183404
-5.07188151230813,0.0007060136897735422
-5.066052790150325,0.0007069830022403412
-5.060224067992519,0.0007067163121825398
-5.054395345834714,0.000705215020921246
-5.0485666236769084,0.0007024869696187833
-5.042737901519104,0.0006985463713736415
-5.036909179361298,0.0006934136884451034
-5.031080457203493,0.0006871154560829373
-5.025251735045687,0.0006796840550736816
-5.0194230128878825,0.0006711574357176966
-5.013594290730077,0.0006615787965100206
-5.007765568572271,0.0006509962213136836
-5.001936846414466,0.0006394622792646881
-4.9961081242566605,0.0006270335920421852
-4.990279402098856,0.0006137703734594227
-4.98445067994105,0.0005997359465797422
-4.978621957783245,0.0005849962437400186
-4.972793235625439,0.0005696192949607437
-4.966964513467635,0.0005536747102446032
-4.961135791309829,0.0005372331612137626
-4.955307069152024,0.0005203658674077724
-4.949478346994218,0.0005031440923731895
-4.9436496248364135,0.0004856386544120003
-4.937820902678608,0.00046791945654315464
-4.931992180520803,0.0004500550398580383
-4.926163458362997,0.0004321121640381703
-4.920334736205192,0.00041415541834897984
-4.914506014047387,0.0003962468659472404
-4.908677291889582,0.00037844572383120834
-4.902848569731776,0.00036080808025588246
-4.897019847573971,0.0003433866509114786
-4.8911911254161655,0.0003262305746528915
-4.885362403258361,0.00030938524906348047
-4.879533681100555,0.0002928922056530045
-4.87370495894275,0.000276789024031103
-4.867876236784944,0.0002611092839678031
-4.86204751462714,0.00024588255386328445
-4.856218792469334,0.00023113441379404853
-4.850390070311529,0.00021688651099650152
-4.844561348153723,0.00020315664538192446
-4.8387326259959185,0.00018995888246516046
-4.832903903838113,0.00017730369091681353
-4.827075181680308,0.00016519810182939743
-4.821246459522502,0.00015364588671304413
-4.815417737364697,0.00014264775120666207
-4.809589015206892,0.00013220154150140467
-4.803760293049087,0.00012230246052739868
-4.797931570891281,0.00011294329103977985
-4.792102848733475,0.00010411462286333967
-4.7862741265756705,9.580508170082408e-5
-4.780445404417865,8.800155708315466e-5
-4.77461668226006,8.06894272330494e-5
-4.768787960102254,7.385277881882812e-5
-4.762959237944449,6.747461979579594e-5
-4.757130515786644,6.153708375529476e-5
-4.751301793628839,5.6021624432668615e-5
-4.745473071471033,5.090919925102022e-5
-4.739644349313228,4.618044100166557e-5
-4.733815627155423,4.1815816978978126e-5
-4.727986904997618,3.7795775094030815e-5
-4.722158182839812,3.4100876685823345e-5
-4.716329460682007,3.071191593093103e-5
-4.7105007385242015,2.7610025917418346e-5
-4.704672016366397,2.477677159692243e-5
-4.698843294208591,2.219422996561221e-5
-4.693014572050786,1.984505793355823e-5
-4.68718584989298,1.7712548445042442e-5
-4.6813571277351755,1.5780675488970275e-5
-4.67552840557737,1.4034128703807602e-5
-4.669699683419565,1.2458338329690566e-5
-4.663870961261759,1.1039491291324477e-5
-4.658042239103954,9.764539215431634e-6
-4.652213516946149,8.621199193072082e-6
-4.646384794788344,7.597948090805329e-6
-4.640556072630538,6.6840111982713335e-6
-4.634727350472733,5.869345980374918e-6
-4.628898628314928,5.144621663545623e-6
-4.623069906157123,4.501195355222087e-6
-4.617241183999317,3.931085347796959e-6
-4.611412461841512,3.4269422160282392e-6
-4.6055837396837065,2.9820182654155536e-6
-4.599755017525902,2.5901358424035292e-6
-4.593926295368096,2.245654963234367e-6
-4.58809757321029,1.9434406711427155e-6
-4.582268851052485,1.6788304800716136e-6
-4.57644012889468,1.4476022173748326e-6
-4.570611406736875,1.2459425301550309e-6
-4.564782684579069,1.0704162792113392e-6
-4.558953962421264,9.179370027839751e-7
-4.5531252402634586,7.857385955073459e-7
-4.547296518105654,6.71348313635578e-7
-4.541467795947848,5.725611876492009e-7
-4.535639073790043,4.874158948120488e-7
-4.529810351632237,4.1417212001682024e-7
-4.523981629474433,3.5128941315576423e-7
-4.518152907316627,2.9740753089424476e-7
-4.512324185158822,2.513282372149095e-7
-4.506495463001016,2.1199852379139017e-7
-4.5006667408432115,1.7849519898943678e-7
-4.494838018685406,1.500107902549508e-7
-4.489009296527601,1.2584069327553626e-7
-4.483180574369795,1.0537150150341512e-7
-4.47735185221199,8.80704441111324e-8
-4.471523130054185,7.347586018779939e-8
-4.46569440789638,6.118863649096085e-8
-4.459865685738574,5.0864536575712105e-8
-4.454036963580769,4.220735169702117e-8
-4.448208241422964,3.496280471387836e-8
-4.442379519265159,2.8913142942343928e-8
-4.436550797107353,2.387235699397028e-8
-4.430722074949548,1.9681968672913275e-8
-4.4248933527917425,1.6207332420581366e-8
-4.419064630633938,1.3334400354725329e-8
-4.413235908476132,1.0966904669118538e-8
-4.407407186318327,9.023913824512952e-9
-4.401578464160521,7.437725720038646e-9
-4.3957497420027165,6.152061311770485e-9
-4.389921019844911,5.1205292922462675e-9
-4.384092297687106,4.305334332099786e-9
-4.3782635755293,3.676204889113688e-9
-4.3724348533714945,3.2095212390559347e-9
-4.36660613121369,2.887627276182414e-9
-4.360777409055884,2.6983111786615943e-9
-4.354948686898079,2.634447986149535e-9
-4.349119964740273,2.693793417496426e-9
-4.343291242582469,2.87892852612881e-9
-4.337462520424663,3.1973526326556367e-9
-4.331633798266858,3.661727768222711e-9
-4.325805076109052,4.290280415653047e-9
-4.3199763539512475,5.1073699713910514e-9
-4.314147631793442,6.1442350998697215e-9
-4.308318909635637,7.43993636143081e-9
-4.302490187477831,9.042511808776688e-9
-4.296661465320026,1.1010372003017466e-8
-4.290832743162221,1.3413959450148116e-8
-4.285004021004416,1.6337705951996462e-8
-4.27917529884661,1.9882323530617807e-8
-4.273346576688805,2.4167469275804265e-8
-4.2675178545309995,2.933483063405351e-8
-4.261689132373195,3.555168134883324e-8
-4.255860410215389,4.3014964520859955e-8
-4.250031688057584,5.195596345514142e-8
-4.244202965899778,6.264562765756487e-8
-4.238374243741974,7.540062616634424e-8
-4.232545521584168,9.059020538576545e-8
-4.226716799426363,1.0864393472365119e-7
-4.220888077268557,1.3006042757363057e-7
-4.2150593551107525,1.55417130755231e-7
-4.209230632952947,1.8538127753708888e-7
-4.203401910795142,2.2072210559970218e-7
-4.197573188637336,2.623244407806702e-7
-4.191744466479531,3.112037510952237e-7
-4.185915744321726,3.685227739358421e-7
-4.180087022163921,4.356098184457591e-7
-4.174258300006115,5.139788410365997e-7
-4.168429577848309,6.053513872950056e-7
-4.1626008556905045,7.116804836559965e-7
-4.156772133532699,8.351765542202738e-7
-4.150943411374894,9.783354211478912e-7
-4.145114689217088,1.1439684313442578e-6
-4.139285967059283,1.3352347333205495e-6
-4.133457244901478,1.5556756990176338e-6
-4.127628522743673,1.8092514614213157e-6
-4.121799800585867,2.1003795032337397e-6
-4.115971078428062,2.4339751949455568e-6
-4.110142356270257,2.8154941395848606e-6
-4.104313634112452,3.2509761349240553e-6
-4.098484911954646,3.7470905126184132e-6
-4.092656189796841,4.3111825598916625e-6
-4.0868274676390355,4.951320669843896e-6
-4.080998745481231,5.676343804186459e-6
-4.075170023323425,6.495908787016206e-6
-4.06934130116562,7.420536880382064e-6
-4.063512579007814,8.46165902217727e-6
-4.0576838568500095,9.631659038349138e-6
-4.051855134692204,1.0943914069893229e-5
-4.046026412534399,1.241283138938979e-5
-4.040197690376593,1.4053880714239014e-5
-4.034368968218788,1.5883621065673563e-5
-4.028540246060983,1.7919721167706718e-5
-4.022711523903178,2.0180972332796567e-5
-4.016882801745372,2.2687292746817017e-5
-4.011054079587567,2.545972203813748e-5
-4.005225357429762,2.8520405006822707e-5
-3.9993966352719563,3.189256339210467e-5
-3.993567913114151,3.5600454578230064e-5
-3.9877391909563458,3.966931617846778e-5
-3.9819104687985405,4.4125295498317115e-5
-3.976081746640735,4.899536296012414e-5
-3.97025302448293,5.430720867968141e-5
-3.9644243023251247,6.0089121512177666e-5
-3.9585955801673194,6.636985004060056e-5
-3.952766858009514,7.317844515982233e-5
-3.946938135851709,8.054408411091799e-5
-3.9411094136939036,8.849587604852285e-5
-3.9352806915360983,9.706264947456286e-5
-3.929451969378293,0.00010627272213910299
-3.9236232472204877,0.00011615365430129448
-3.9177945250626824,0.00012673198654237355
-3.911965802904877,0.00013803296364234968
-3.906137080747072,0.00015008024635158879
-3.9003083585892666,0.0001628956132156134
-3.8944796364314613,0.00017649865493515188
-3.888650914273656,0.00019090646405921924
-3.882822192115851,0.00020613332311057025
-3.8769934699580455,0.00022219039452656825
-3.8711647478002402,0.000239085416052838
-3.865336025642435,0.000256822405452474
-3.8595073034846297,0.00027540137857549885
-3.853678581326824,0.0002948180849734264
-3.8478498591690187,0.0003150637653305116
-3.8420211370112134,0.0003361249350133516
-3.836192414853408,0.00035798319800895567
-3.830363692695603,0.0003806150954241208
-3.8245349705377976,0.0004039919925513738
-3.8187062483799923,0.0004280800082695213
-3.812877526222187,0.0004528399902339192
-3.8070488040643817,0.00047822753892923925
-3.8012200819065765,0.0005041930832015359
-3.795391359748771,0.000530682009363237
-3.789562637590966,0.0005576348453758956
-3.7837339154331606,0.0005849875009715302
-3.7779051932753553,0.0006126715638715002
-3.77207647111755,0.0006406146515235168
-3.766247748959745,0.0006687408170023279
-3.7604190268019395,0.0006969710069207567
-3.7545903046441342,0.0007252235683904706
-3.748761582486329,0.0007534148012678099
-3.7429328603285237,0.0007814595511261152
-3.7371041381707184,0.000809271837639014
-3.731275416012913,0.0008367655123389384
-3.725446693855108,0.000863854939057284
-3.7196179716973026,0.0008904556897642926
-3.7137892495394973,0.0009164852480209908
-3.707960527381692,0.0009418637118510445
-3.7021318052238867,0.0009665144875370159
-3.6963030830660815,0.0009903649656651525
-3.690474360908276,0.001013347170682917
-3.684645638750471,0.0010353983753059043
-3.6788169165926656,0.0010564616713183463
-3.6729881944348604,0.0010764864886520023
-3.667159472277055,0.0010954290551075524
-3.66133075011925,0.0011132527896895172
-3.6555020279614445,0.0011299286232624509
-3.6496733058036392,0.0011454352410848224
-3.6438445836458335,0.0011597592427378609
-3.6380158614880282,0.0011728952160176762
-3.632187139330223,0.0011848457224882605
-3.6263584171724177,0.0011956211935863978
-3.6205296950146124,0.0012052397374036766
-3.614700972856807,0.0012137268575301216
-3.608872250699002,0.0012211150866053497
-3.6030435285411966,0.0012274435384661275
-3.5972148063833913,0.0012327573839853237
-3.591386084225586,0.0012371072568391345
-3.5855573620677808,0.0012405485965050998
-3.5797286399099755,0.0012431409367571755
-3.57389991775217,0.0012449471487728271
-3.568071195594365,0.0012460326486811134
-3.5622424734365596,0.0012464645799527899
-3.5564137512787544,0.0012463109814437046
-3.550585029120949,0.0012456399521546743
-3.544756306963144,0.0012445188238468866
-3.5389275848053385,0.0012430133525596285
-3.5330988626475333,0.0012411869398142802
-3.527270140489728,0.0012390998938565725
-3.5214414183319227,0.0012368087406988415
-3.5156126961741174,0.0012343655939877143
-3.509783974016312,0.0012318175918443128
-3.503955251858507,0.0012292064078308594
-3.4981265297007016,0.001226567842096727
-3.4922978075428963,0.0012239314975764463
-3.486469085385091,0.0012213205448644432
-3.4806403632272858,0.0012187515781057513
-3.4748116410694805,0.0012162345629357675
-3.468982918911675,0.00121377287619924
-3.46315419675387,0.0012113634359026577
-3.4573254745960647,0.0012089969186208395
-3.4514967524382594,0.0012066580604169347
-3.445668030280454,0.0012043260362520729
-3.439839308122649,0.0012019749118828416
-3.434010585964843,0.0011995741613772953
-3.428181863807038,0.001197089242643043
-3.4223531416492325,0.001194482222752584
-3.4165244194914273,0.0011917124443883882
-3.410695697333622,0.00118873722440559
-3.4048669751758167,0.0011855125753328782
-3.3990382530180114,0.0011819939405912552
-3.393209530860206,0.001178136934308063
-3.387380808702401,0.0011738980768248013
-3.3815520865445956,0.0011692355173395733
-3.3757233643867903,0.001164109735568443
-3.369894642228985,0.0011584842148488015
-3.3640659200711798,0.0011523260797220488
-3.3582371979133745,0.0011456066917099519
-3.352408475755569,0.0011383021977225752
-3.346579753597764,0.0011303940262895277
-3.3407510314399587,0.0011218693275751833
-3.3349223092821534,0.0011127213539093572
-3.329093587124348,0.001102949778320636
-3.323264864966543,0.0010925609492923368
-3.3174361428087376,0.001081568080655907
-3.3116074206509323,0.001069991376186628
-3.305778698493127,0.001057858089065715
-3.2999499763353217,0.0010452025169128323
-3.2941212541775164,0.001032065933572128
-3.288292532019711,0.0010184964592546558
-3.282463809861906,0.001004548870995466
-3.2766350877041006,0.0009902843556805086
-3.2708063655462953,0.0009757702081429499
-3.26497764338849,0.0009610794770193148
-3.259148921230685,0.00094629056120662
-3.2533201990728795,0.0009314867598745318
-3.2474914769150742,0.0009167557790718921
-3.241662754757269,0.0009021891980337364
-3.2358340325994637,0.0008878818983472543
-3.230005310441658,0.0008739314591866103
-3.2241765882838527,0.0008604375218812244
-3.2183478661260474,0.0008475011271450068
-3.212519143968242,0.000835224028376113
-3.206690421810437,0.0008237079845370178
-3.2008616996526316,0.0008130540362501909
-3.1950329774948263,0.0008033617688923394
-3.189204255337021,0.0007947285666467553
-3.1833755331792157,0.0007872488616701562
-3.1775468110214105,0.0007810133827496381
-3.171718088863605,0.0007761084080592315
-3.1658893667058,0.0007726150268697919
-3.1600606445479946,0.0007706084153126409
-3.1542319223901893,0.0007701571315385965
-3.148403200232384,0.000771322435838594
-3.142574478074579,0.0007741576414947125
-3.1367457559167735,0.0007787075022941941
-3.1309170337589682,0.0007850076427618827
-3.125088311601163,0.0007930840372288445
-3.1192595894433577,0.0008029525438568198
-3.1134308672855524,0.0008146184996632236
-3.107602145127747,0.0008280763824357155
-3.101773422969942,0.0008433095451818584
-3.0959447008121366,0.0008602900284220318
-3.0901159786543313,0.0008789784552025101
-3.084287256496526,0.0008993240131725359
-3.0784585343387207,0.0009212645274463555
-3.0726298121809155,0.0009447266272491692
-3.06680109002311,0.0009696260085392781
-3.060972367865305,0.0009958677939101573
-3.0551436457074996,0.001023346990118846
-3.0493149235496944,0.0010519490425667521
-3.043486201391889,0.0010815504849975115
-3.037657479234084,0.0011120196815811514
-3.0318287570762785,0.001143217657445593
-3.0260000349184732,0.00117499901261248
-3.0201713127606675,0.0012072129132108742
-3.0143425906028622,0.0012397041527999302
-3.008513868445057,0.0012723142756496872
-3.0026851462872517,0.0013048827529216229
-2.9968564241294464,0.0013372482018815038
-2.991027701971641,0.0013692496375760053
-2.985198979813836,0.0014007277458310766
-2.9793702576560306,0.0014315261659940577
-2.9735415354982253,0.0014614927715542372
-2.96771281334042,0.0014904809366450937
-2.9618840911826148,0.001518350776464665
-2.9560553690248095,0.001544970349841598
-2.950226646867004,0.0015702168125348755
-2.944397924709199,0.0015939775103701159
-2.9385692025513936,0.0016161510019827643
-2.9327404803935884,0.0016366480017503925
-2.926911758235783,0.0016553922344340333
-2.921083036077978,0.001672321194101982
-2.9152543139201725,0.0016873868010597905
-2.9094255917623673,0.0017005559517379101
-2.903596869604562,0.001711810957769946
-2.8977681474467567,0.0017211498718145597
-2.8919394252889514,0.0017285866990040602
-2.886110703131146,0.0017341514942207422
-2.880281980973341,0.0017378903466915563
-2.8744532588155356,0.0017398652546216226
-2.8686245366577303,0.001740153893747532
-2.862795814499925,0.0017388492847554681
-2.8569670923421198,0.0017360593654644606
-2.8511383701843145,0.0017319064745088958
-2.845309648026509,0.0017265267539503075
-2.839480925868704,0.0017200694788023487
-2.8336522037108987,0.001712696321857751
-2.8278234815530934,0.0017045805624597236
-2.821994759395288,0.0016959062479612614
-2.816166037237483,0.0016868673165725372
-2.810337315079677,0.001677666690109941
-2.804508592921872,0.0016685153448461488
