Values,Density
-4.782620836494108,2.3026528434000326e-7
-4.777515553158342,2.354458253084335e-7
-4.7724102698225765,2.458866461274578e-7
-4.767304986486811,2.6175775419412517e-7
-4.762199703151045,2.833159551962616e-7
-4.757094419815279,3.1090712795944775e-7
-4.751989136479513,3.449692472512478e-7
-4.746883853143747,3.8603614260779295e-7
-4.741778569807981,4.347419853556467e-7
-4.736673286472215,4.918264858710941e-7
-4.7315680031364495,5.581407845622888e-7
-4.726462719800684,6.346540129820166e-7
-4.721357436464918,7.224604977595916e-7
-4.716252153129152,8.227875733513024e-7
-4.711146869793386,9.370039650569151e-7
-4.70604158645762,1.066628694201821e-6
-4.700936303121854,1.213340453082301e-6
-4.695831019786088,1.378987384559327e-6
-4.6907257364503225,1.5655971967176718e-6
-4.685620453114557,1.7753875287684906e-6
-4.680515169778791,2.010776477073817e-6
-4.675409886443025,2.2743931775148774e-6
-4.670304603107259,2.5690883293794098e-6
-4.665199319771492,2.8979445356458466e-6
-4.660094036435726,3.2642863182497095e-6
-4.6549887530999605,3.6716896614219507e-6
-4.649883469764195,4.123990919174814e-6
-4.644778186428429,4.625294912408151e-6
-4.639672903092663,5.179982034253516e-6
-4.634567619756897,5.792714166230617e-6
-4.629462336421131,6.468439204210252e-6
-4.624357053085365,7.212393982686249e-6
-4.619251769749599,8.030105381629654e-6
-4.6141464864138335,8.927389395251006e-6
-4.609041203078068,9.910347941611414e-6
-4.603935919742302,1.0985363192727443e-5
-4.598830636406536,1.2159089208551438e-5
-4.59372535307077,1.3438440664637757e-5
-4.588620069735004,1.4830578476929951e-5
-4.583514786399238,1.634289213520851e-5
-4.578409503063472,1.798297858241274e-5
-4.5733042197277065,1.975861749250324e-5
-4.568198936391941,2.167774282701984e-5
-4.563093653056175,2.3748410585437696e-5
-4.557988369720409,2.5978762690608004e-5
-4.552883086384643,2.8376986995679726e-5
-4.547777803048877,3.0951273437725135e-5
-4.542672519713111,3.370976641046963e-5
-4.537567236377345,3.666051347649135e-5
-4.5324619530415795,3.981141059387558e-5
-4.527356669705814,4.317014408488848e-5
-4.522251386370048,4.67441296306062e-5
-4.517146103034282,5.054044863713608e-5
-4.512040819698516,5.456578237285348e-5
-4.50693553636275,5.8826344336779246e-5
-4.501830253026984,6.332781137753651e-5
-4.496724969691218,6.807525413174767e-5
-4.4916196863554525,7.307306741003924e-5
-4.486514403019687,7.832490120145488e-5
-4.481409119683921,8.383359301365051e-5
-4.476303836348155,8.960110230224819e-5
-4.471198553012389,9.56284477724896e-5
-4.466093269676623,0.00010191564836027969
-4.460987986340857,0.0001084616687114133
-4.455882703005091,0.00011526436998190309
-4.4507774196693255,0.00012232046677601582
-4.44567213633356,0.00012962549101969145
-4.440566852997794,0.0001371737635373002
-4.435461569662028,0.00014495837406001272
-4.430356286326261,0.00015297117033725993
-4.425251002990495,0.00016120275695974406
-4.420145719654729,0.00016964250442171036
-4.4150404363189635,0.00017827856886470234
-4.409935152983198,0.00018709792284106463
-4.404829869647432,0.00019608639732589944
-4.399724586311666,0.00020522873508945633
-4.3946193029759,0.000214508655410936
-4.389514019640134,0.000223908929983134
-4.384408736304368,0.00023341146971957855
-4.379303452968602,0.00024299742203169605
-4.3741981696328365,0.0002526472780050096
-4.369092886297071,0.0002623409887576103
-4.363987602961305,0.0002720580901306724
-4.358882319625539,0.00028177783472207313
-4.353777036289773,0.00029147933015391536
-4.348671752954007,0.00030114168234533084
-4.343566469618241,0.00031074414245803317
-4.338461186282475,0.0003202662560941316
-4.3333559029467095,0.0003296880132456076
-4.328250619610944,0.0003389899974436464
-4.323145336275178,0.000348153532511615
-4.318040052939412,0.00035716082530919124
-4.312934769603646,0.00036599510285718895
-4.30782948626788,0.000374640742255572
-4.302724202932114,0.00038308339185266077
-4.297618919596348,0.0003913100821921617
-4.2925136362605825,0.0003993093253516211
-4.287408352924817,0.0004070712013979558
-4.282303069589051,0.0004145874308132888
-4.277197786253285,0.00042185143189250873
-4.272092502917519,0.0004288583622796341
-4.266987219581753,0.0004356051439840039
-4.261881936245987,0.00044209047141528096
-4.256776652910221,0.00044831480216619285
-4.2516713695744555,0.0004542803304885476
-4.24656608623869,0.00045999094360929527
-4.241460802902924,0.0004654521612487486
-4.236355519567158,0.00047067105890917504
-4.231250236231392,0.00047565617570338725
-4.226144952895626,0.0004804174076856599
-4.22103966955986,0.00048496588782877964
-4.215934386224094,0.0004893138539567993
-4.2108291028883285,0.000493474506090899
-4.205723819552563,0.0004974618547950588
-4.200618536216796,0.000501290562217066
-4.19551325288103,0.0005049757775999128
-4.190407969545264,0.0005085329691026236
-4.185302686209498,0.0005119777537988465
-4.180197402873732,0.0005153257277304216
-4.175092119537966,0.0005185922978764024
-4.169986836202201,0.0005217925178482158
-4.164881552866435,0.000524940929059324
-4.159776269530669,0.000528051409020118
-4.154670986194903,0.0005311370282969144
-4.149565702859137,0.0005342099175397325
-4.144460419523371,0.0005372811458318472
-4.139355136187605,0.0005403606114487633
-4.134249852851839,0.0005434569459375274
-4.129144569516074,0.0005465774322391259
-4.124039286180308,0.0005497279373873551
-4.118934002844542,0.0005529128601231281
-4.113828719508776,0.0005561350935697415
-4.10872343617301,0.0005593960029270928
-4.103618152837244,0.0005626954179609386
-4.098512869501478,0.0005660316398926751
-4.093407586165712,0.0005694014621353133
-4.0883023028299466,0.0005728002041793592
-4.083197019494181,0.0005762217578039533
-4.078091736158415,0.0005796586446806806
-4.072986452822649,0.0005831020843496196
-4.067881169486883,0.0005865420714786795
-4.062775886151117,0.0005899674612685202
-4.057670602815351,0.0005933660618419531
-4.052565319479585,0.0005967247324463743
-4.0474600361438196,0.0006000294863156494
-4.042354752808054,0.0006032655970645631
-4.037249469472288,0.0006064177075408086
-4.032144186136522,0.0006094699401205592
-4.027038902800756,0.0006124060075086424
-4.02193361946499,0.0006152093231920897
-4.016828336129224,0.0006178631107871951
-4.011723052793458,0.0006203505116224028
-4.0066177694576925,0.00062265468999681
-4.001512486121927,0.000624758935661357
-3.9964072027861604,0.000626646763166358
-3.9913019194503945,0.0006283020078141216
-3.9861966361146286,0.0006297089180479359
-3.9810913527788627,0.0006308522441848402
-3.975986069443097,0.0006317173234722251
-3.970880786107331,0.0006322901615072318
-3.965775502771565,0.0006325575101029032
-3.960670219435799,0.0006325069417197002
-3.9555649361000333,0.0006321269206003566
-3.9504596527642675,0.0006314068707531303
-3.9453543694285016,0.0006303372409223323
-3.9402490860927357,0.0006289095666652603
-3.93514380275697,0.0006271165296284006
-3.930038519421204,0.0006249520140709092
-3.924933236085438,0.0006224111606422042
-3.919827952749672,0.0006194904173603549
-3.9147226694139063,0.0006161875876794926
-3.90961738607814,0.000612501875477317
-3.904512102742374,0.0006084339267225236
-3.8994068194066083,0.0006039858675272597
-3.8943015360708424,0.0005991613382265448
-3.8891962527350765,0.0005939655230756263
-3.8840909693993106,0.0005884051751072206
-3.8789856860635448,0.0005824886356547571
-3.873880402727779,0.0005762258480165039
-3.868775119392013,0.0005696283647198125
-3.863669836056247,0.0005627093478392936
-3.8585645527204813,0.0005554835618279963
-3.8534592693847154,0.000547967358342033
-3.8483539860489495,0.0005401786525742885
-3.8432487027131836,0.0005321368906517354
-3.8381434193774178,0.0005238630077199075
-3.833038136041652,0.0005153793763988529
-3.827932852705886,0.0005067097453810843
-3.82282756937012,0.0004978791680321643
-3.8177222860343543,0.0004889139209519611
-3.8126170026985884,0.00047984141256302015
-3.8075117193628225,0.00047069008190245287
-3.8024064360270566,0.00046148928790833155
-3.7973011526912908,0.00045226918960991624
-3.7921958693555244,0.00044306061774650185
-3.7870905860197586,0.0004338949384551233
-3.7819853026839927,0.00042480390978034965
-3.776880019348227,0.00041581953186346776
-3.771774736012461,0.00040697389177246635
-3.766669452676695,0.0003982990040214962
-3.761564169340929,0.0003898266479155227
-3.7564588860051633,0.0003815882029251094
-3.7513536026693974,0.0003736144833577232
-3.7462483193336316,0.00036593557363977236
-3.7411430359978657,0.000358580665560021
-3.7360377526621,0.0003515778988423257
-3.730932469326334,0.0003449542064278416
-3.725827185990568,0.0003387351658356158
-3.720721902654802,0.000332944857951295
-3.7156166193190363,0.0003276057345577843
-3.7105113359832704,0.0003227384958717494
-3.7054060526475046,0.000318361979286072
-3.7003007693117387,0.0003144930604449675
-3.695195485975973,0.0003111465676859382
-3.690090202640207,0.0003083352107837306
-3.684984919304441,0.00030606952482238603
-3.679879635968675,0.000304357829894783
-3.674774352632909,0.00030320620720133973
-3.669669069297143,0.0003026184919821262
-3.664563785961377,0.00030259628356416046
-3.6594585026256112,0.000303138972661654
-3.6543532192898454,0.00030424378590455936
-3.6492479359540795,0.0003059058474126769
-3.6441426526183136,0.0003081182570731922
-3.6390373692825477,0.0003108721850127033
-3.633932085946782,0.0003141569815982431
-3.628826802611016,0.0003179603021405131
-3.62372151927525,0.00032226824531828013
-3.6186162359394842,0.00032706550419651925
-3.6135109526037184,0.00033233552856533344
-3.6084056692679525,0.0003380606971998684
-3.6033003859321866,0.0003442224985143044
-3.5981951025964207,0.00035080171797809145
-3.593089819260655,0.00035777863056497827
-3.587984535924889,0.0003651331964236171
-3.582879252589123,0.0003728452578997954
-3.5777739692533572,0.0003808947359883602
-3.5726686859175913,0.0003892618242718193
-3.5675634025818255,0.0003979271783914329
-3.562458119246059,0.00040687209911524636
-3.5573528359102933,0.0004160787070974781
-3.5522475525745274,0.00042553010748618003
-3.5471422692387615,0.00043521054261040637
-3.5420369859029956,0.0004451055310788765
-3.5369317025672298,0.00045520199174407805
-3.531826419231464,0.0004654883511239216
-3.526721135895698,0.00047595463303207186
-3.521615852559932,0.0004865925293472684
-3.5165105692241663,0.0004973954510372053
-3.5114052858884004,0.0005083585587635081
-3.5063000025526345,0.0005194787726064409
-3.5011947192168686,0.00053075476067245
-3.4960894358811028,0.0005421869065780488
-3.490984152545337,0.0005537772560353788
-3.485878869209571,0.0005655294429969121
-3.480773585873805,0.0005774485960463455
-3.4756683025380393,0.0005895412259421107
-3.4705630192022734,0.0006018150954357847
-3.4654577358665075,0.0006142790726844205
-3.4603524525307416,0.0006269429697613309
-3.4552471691949758,0.0006398173679361451
-3.45014188585921,0.0006529134315374248
-3.4450366025234436,0.0006662427123386909
-3.4399313191876777,0.0006798169465005137
-3.434826035851912,0.0006936478461785812
-3.429720752516146,0.0007077468879499438
-3.42461546918038,0.000722125100228021
-3.419510185844614,0.000736792851827404
-3.4144049025088483,0.0007517596438035157
-3.4092996191730824,0.0007670339066264027
-3.4041943358373166,0.0007826228046635996
-3.3990890525015507,0.0007985320498319538
-3.393983769165785,0.000814765726149022
-3.388878485830019,0.0008313261267608069
-3.383773202494253,0.0008482136048577477
-3.378667919158487,0.0008654264397088508
-3.3735626358227213,0.0008829607188564814
-3.3684573524869554,0.0009008102373164451
-3.3633520691511896,0.0009189664144296657
-3.3582467858154237,0.0009374182288159013
-3.353141502479658,0.000956152171680837
-3.348036219143892,0.0009751522185457227
-3.342930935808126,0.000994399819288123
-3.33782565247236,0.0010138739062185173
-3.3327203691365943,0.0010335509197690366
-3.327615085800828,0.0010534048512373076
-3.322509802465062,0.0010734073019137858
-3.3174045191292962,0.001093527557829624
-3.3122992357935304,0.0011137326792845653
-3.3071939524577645,0.0011339876042647176
-3.3020886691219986,0.001154255264824225
-3.2969833857862327,0.0011744967154928981
-3.291878102450467,0.0011946712727756853
-3.286772819114701,0.0012147366648286306
-3.281667535778935,0.001234649190436192
-3.2765622524431692,0.0012543638864548831
-3.2714569691074034,0.0012738347029512403
-3.2663516857716375,0.0012930146853214891
-3.2612464024358716,0.0013118561627472394
-3.2561411191001057,0.001330310942411865
-3.25103583576434,0.0013483305089639144
-3.245930552428574,0.0013658662287767478
-3.240825269092808,0.001382869558604831
-3.2357199857570422,0.0013992922582808584
-3.2306147024212764,0.0014150866071262064
-3.2255094190855105,0.001430205623765897
-3.2204041357497446,0.0014446032890392882
-3.2152988524139787,0.0014582347716820335
-3.2101935690782124,0.0014710566564260577
-3.2050882857424465,0.0014830271741142764
-3.1999830024066807,0.0014941064333644088
-3.194877719070915,0.0015042566532406723
-3.189772435735149,0.0015134423962963675
-3.184667152399383,0.0015216308012544894
-3.179561869063617,0.0015287918144789928
-3.1744565857278513,0.0015348984192755308
-3.1693513023920854,0.0015399268619397041
-3.1642460190563195,0.0015438568733546765
-3.1591407357205536,0.0015466718848227215
-3.1540354523847878,0.001548359236709422
-3.148930169049022,0.001548910378380848
-3.143824885713256,0.0015483210578312659
-3.13871960237749,0.0015465914993318189
-3.1336143190417243,0.0015437265673839198
-3.1285090357059584,0.0015397359152360818
-3.1234037523701925,0.001534634116220901
-3.1182984690344266,0.0015284407761965574
-3.1131931856986608,0.0015211806254256388
-3.108087902362895,0.0015128835883053485
-3.102982619027129,0.0015035848294699533
-3.0978773356913627,0.0014933247749191955
-3.092772052355597,0.0014821491069856724
-3.087666769019831,0.0014701087321408388
-3.082561485684065,0.0014572597208412225
-3.077456202348299,0.001443663218846071
-3.0723509190125333,0.0014293853296775474
-3.0672456356767674,0.0014144969681508385
-3.0621403523410016,0.0013990736851666186
-3.0570350690052357,0.001383195464228687
-3.05192978566947,0.0013669464904207396
-3.046824502333704,0.0013504148928476165
-3.041719218997938,0.0013336924618067222
-3.036613935662172,0.0013168743422083753
-3.0315086523264063,0.0013000587050019177
-3.0264033689906404,0.0012833463985819846
-3.0212980856548746,0.0012668405823470716
-3.0161928023191087,0.0012506463447590072
-3.011087518983343,0.0012348703083937887
-3.005982235647577,0.0012196202245960963
-3.000876952311811,0.001205004560436533
-2.995771668976045,0.0011911320807261733
-2.9906663856402793,0.0011781114278708801
-2.9855611023045134,0.0011660507023389388
-2.980455818968747,0.00115505704648209
-2.9753505356329812,0.0011452362343824588
-2.9702452522972154,0.001136692270305363
-2.9651399689614495,0.001129526998219138
-2.9600346856256836,0.0011238397247008078
-2.9549294022899177,0.0011197268573869198
-2.949824118954152,0.0011172815609456904
-2.944718835618386,0.0011165934323591614
-2.93961355228262,0.0011177481970971875
-2.9345082689468542,0.0011208274275566546
-2.9294029856110884,0.001125908284926716
-2.9242977022753225,0.0011330632854249234
-2.9191924189395566,0.0011423600916415366
-2.9140871356037907,0.0011538613295206182
-2.908981852268025,0.0011676244313141224
-2.903876568932259,0.0011837015046558472
-2.898771285596493,0.0012021392277316093
-2.8936660022607272,0.0012229787703626205
-2.8885607189249614,0.0012462557406745026
-2.8834554355891955,0.001272000156899572
-2.8783501522534296,0.0013002364437467093
-2.8732448689176637,0.0013309834526799152
-2.868139585581898,0.001364254505368312
-2.8630343022461315,0.001400057459504403
-2.8579290189103657,0.0014383947961399829
-2.8528237355746,0.0014792637276495949
-2.847718452238834,0.0015226563254037498
-2.842613168903068,0.0015685596662173631
-2.837507885567302,0.0016169559966259447
-2.8324026022315363,0.0016678229140354647
-2.8272973188957704,0.0017211335637881964
-2.8221920355600045,0.0017768568511835302
-2.8170867522242387,0.0018349576674889685
-2.811981468888473,0.0018953971289697516
-2.806876185552707,0.0019581328279576413
-2.801770902216941,0.002023119094960616
-2.796665618881175,0.0020903072707993027
-2.7915603355454093,0.002159645987726444
-2.7864550522096434,0.0022310814584542323
-2.7813497688738775,0.00230455777197627
-2.7762444855381117,0.002380017195027076
-2.7711392022023458,0.0024574004779741414
-2.76603391886658,0.002536647163887691
-2.760928635530814,0.002617695899480816
-2.755823352195048,0.0027004847465610105
-2.7507180688592823,0.0027849514925856744
-2.745612785523516,0.0028710339588696072
-2.74050750218775,0.002958670304954631
-2.735402218851984,0.0030477993276242198
-2.7302969355162183,0.0031383607530277476
-2.7251916521804525,0.003230295520376434
-2.7200863688446866,0.003323546055684662
-2.7149810855089207,0.0034180565340595076
-2.709875802173155,0.003513773129087936
-2.704770518837389,0.0036106442479402444
-2.699665235501623,0.0037086207508938603
-2.694559952165857,0.003807656154089477
-2.6894546688300913,0.0039077068144622445
-2.6843493854943254,0.004008732095935365
-2.6792441021585596,0.004110694516132184
-2.6741388188227937,0.004213559873046384
-2.669033535487028,0.004317297351306745
-2.663928252151262,0.0044218796078857245
-2.658822968815496,0.004527282837320415
-2.65371768547973,0.00463348681674142
-2.6486124021439643,0.004740474931235382
-2.6435071188081984,0.00484823418029515
-2.6384018354724326,0.004956755166335699
-2.6332965521366662,0.0050660320664683775
-2.6281912688009004,0.005176062588930608
-2.6230859854651345,0.005286847915749515
-2.6179807021293686,0.005398392633387424
-2.6128754187936027,0.005510704653254813
-2.607770135457837,0.0056237951240895485
-2.602664852122071,0.005737678338286142
-2.597559568786305,0.005852371634305881
-2.5924542854505392,0.005967895297315118
-2.5873490021147734,0.0060842724601765305
-2.5822437187790075,0.0062015290068600515
-2.5771384354432416,0.006319693480242482
-2.5720331521074757,0.00643879699613116
-2.56692786877171,0.006558873165177663
-2.561822585435944,0.0066799580241412165
-2.556717302100178,0.006802089977725002
-2.5516120187644122,0.006925309751941389
-2.5465067354286464,0.007049660359668218
-2.5414014520928805,0.007175187078744899
-2.5362961687571146,0.007301937442621188
-2.5311908854213487,0.007429961243228429
-2.526085602085583,0.007559310545388387
-2.520980318749817,0.007690039711719054
-2.5158750354140507,0.00782220543664541
-2.510769752078285,0.007955866787783067
-2.505664468742519,0.0080910852526326
-2.500559185406753,0.008227924788221659
-2.495453902070987,0.008366451871052092
-2.4903486187352213,0.00850673554446602
-2.4852433353994554,0.008648847460338603
-2.4801380520636895,0.008792861911843945
-2.4750327687279237,0.008938855853923199
-2.469927485392158,0.00908690890802447
-2.464822202056392,0.009237103347674164
-2.459716918720626,0.009389524061490899
-2.45461163538486,0.009544258490363397
-2.4495063520490943,0.009701396535685759
-2.4444010687133284,0.009861030435776007
-2.4392957853775625,0.010023254607899832
-2.4341905020417967,0.010188165453673988
-2.429085218706031,0.010355861126037438
-2.423979935370265,0.01052644125644335
-2.418874652034499,0.010700006641442009
-2.413769368698733,0.010876658888387146
-2.4086640853629673,0.011056500020597552
-2.4035588020272014,0.01123963204294224
-2.398453518691435,0.011426156469472936
-2.393348235355669,0.011616173815406822
-2.3882429520199033,0.011809783056443306
-2.3831376686841375,0.012007081059081272
-2.3780323853483716,0.012208161986275964
-2.3729271020126057,0.01241311668342086
-2.36782181867684,0.012622032050258053
-2.362716535341074,0.012834990404896853
-2.357611252005308,0.01305206884663801
-2.352505968669542,0.013273338624763209
-2.3474006853337763,0.013498864520833334
-2.3422954019980105,0.013728704252341399
-2.3371901186622446,0.013962907905780895
-2.3320848353264787,0.014201517407304062
-2.326979551990713,0.014444566039154743
-2.321874268654947,0.014692078009959647
-2.316768985319181,0.014944068086751687
-2.311663701983415,0.015200541296262818
-2.3065584186476493,0.01546149270258198
