Values,Density
-4.377175417221891,2.3476140176281746e-7
-4.372253083902637,2.398081464793922e-7
-4.367330750583381,2.4985061772286876e-7
-4.362408417264127,2.6504373101809975e-7
-4.357486083944872,2.8561952386541023e-7
-4.352563750625618,3.1188917345992273e-7
-4.347641417306362,3.4424565015234165e-7
-4.342719083987108,3.8316700029517037e-7
-4.337796750667853,4.292202554490032e-7
-4.332874417348599,4.83065960454887e-7
-4.327952084029343,5.454633095758332e-7
-4.323029750710089,6.172758788003385e-7
-4.318107417390834,6.99477939292148e-7
-4.313185084071579,7.931613318357122e-7
-4.308262750752324,8.995428792402116e-7
-4.30334041743307,1.0199723090853485e-6
-4.298418084113815,1.155940652891596e-6
-4.29349575079456,1.3090890836064961e-6
-4.288573417475305,1.4812181462764418e-6
-4.283651084156051,1.6742973295846841e-6
-4.278728750836796,1.8904749202741655e-6
-4.273806417517541,2.1320880732034198e-6
-4.2688840841982865,2.4016730217346627e-6
-4.263961750879032,2.701975347491059e-6
-4.2590394175597766,3.0359602146701192e-6
-4.254117084240522,3.406822470991555e-6
-4.2491947509212675,3.817996503591159e-6
-4.244272417602013,4.273165732093798e-6
-4.239350084282758,4.776271612022542e-6
-4.234427750963503,5.331522011292611e-6
-4.229505417644249,5.943398817070955e-6
-4.224583084324994,6.616664621039714e-6
-4.219660751005739,7.356368325793505e-6
-4.214738417686484,8.167849507540598e-6
-4.20981608436723,9.056741368546756e-6
-4.204893751047974,1.0028972106338602e-5
-4.19997141772872,1.109076452786642e-5
-4.195049084409465,1.2248633734376901e-5
-4.190126751090211,1.3509382706982515e-5
-4.185204417770955,1.4880095624301981e-5
-4.180282084451701,1.6368128750818278e-5
-4.175359751132446,1.798109874429077e-5
-4.170437417813192,1.9726868237826545e-5
-4.165515084493936,2.1613528568550228e-5
-4.160592751174682,2.3649379539518456e-5
-4.155670417855427,2.58429061190113e-5
-4.150748084536172,2.820275200383915e-5
-4.145825751216917,3.073768999537971e-5
-4.140903417897663,3.345658916319855e-5
-4.135981084578408,3.6368378799663675e-5
-4.131058751259153,3.9482009199138385e-5
-4.1261364179398985,4.2806409325760186e-5
-4.121214084620644,4.635044147114839e-5
-4.1162917513013895,5.012285303400421e-5
-4.111369417982134,5.4132225592636724e-5
-4.1064470846628796,5.838692147780086e-5
-4.101524751343625,6.28950280873522e-5
-4.09660241802437,6.766430022443065e-5
-4.091680084705115,7.270210077287356e-5
-4.086757751385861,7.801534006029315e-5
-4.081835418066606,8.36104142910056e-5
-4.076913084747351,8.949314345999687e-5
-4.071990751428096,9.566870918864198e-5
-4.067068418108842,0.00010214159294475583
-4.062146084789587,0.0001089155151305643
-4.057223751470332,0.000115993375538255
-4.052301418151077,0.00012337719568376176
-4.047379084831823,0.00013106806353454376
-4.042456751512567,0.0001390660811489003
-4.037534418193313,0.00014737031574037218
-4.032612084874058,0.0001559787546668162
-4.027689751554804,0.00016488826483167934
-4.022767418235548,0.00017409455695765325
-4.017845084916294,0.00018359215517104593
-4.012922751597039,0.00019337437229399734
-4.008000418277785,0.00020343329120959402
-4.0030780849585295,0.00021375975261576224
-3.998155751639275,0.00022434334943882694
-3.99323341832002,0.0002351724281226264
-3.9883110850007655,0.00024623409695460896
-3.9833887516815105,0.00025751424153105246
-3.978466418362256,0.0002689975474030118
-3.973544085043001,0.00028066752988321203
-3.9686217517237465,0.0002925065709306271
-3.9636994184044916,0.0003044959629697544
-3.958777085085237,0.0003166159594389095
-3.953854751765982,0.0003288458318045154
-3.9489324184467276,0.00034116393272399376
-3.9440100851274726,0.00035354776498584817
-3.9390877518082177,0.0003659740558101046
-3.934165418488963,0.0003784188360491658
-3.929243085169708,0.0003908575237939957
-3.9243207518504537,0.0004032650118576883
-3.9193984185311987,0.0004156157585877285
-3.9144760852119442,0.00042788388143832207
-3.9095537518926893,0.00044004325272720135
-3.9046314185734348,0.0004520675969946833
-3.89970908525418,0.0004639305893896703
-3.8947867519349253,0.00047560595451674736
-3.8898644186156703,0.0004870675651934553
-3.8849420852964154,0.0004982895405930277
-3.880019751977161,0.0005092463432721725
-3.875097418657906,0.000519912874618382
-3.8701750853386514,0.0005302645682875862
-3.8652527520193964,0.0005402774812405739
-3.860330418700142,0.0005499283820316822
-3.855408085380887,0.0005591948360433793
-3.8504857520616325,0.0005680552874062286
-3.8455634187423775,0.0005764891373864212
-3.840641085423123,0.0005844768190643584
-3.835718752103868,0.0005919998681691921
-3.830796418784613,0.0005990409899702329
-3.8258740854653586,0.0006055841221597538
-3.8209517521461036,0.000611614493692729
-3.816029418826849,0.0006171186795704067
-3.811107085507594,0.0006220846515789039
-3.8061847521883396,0.0006265018250047258
-3.8012624188690847,0.0006303611013604993
-3.79634008554983,0.0006336549071575548
-3.791417752230575,0.0006363772287598865
-3.7864954189113207,0.0006385236433490912
-3.7815730855920657,0.0006400913460182928
-3.7766507522728108,0.0006410791729971263
-3.7717284189535563,0.0006414876209943007
-3.7668060856343013,0.0006413188626216287
-3.761883752315047,0.0006405767578389343
-3.756961418995792,0.0006392668613390759
-3.7520390856765373,0.0006373964257647968
-3.7471167523572824,0.0006349744006276803
-3.742194419038028,0.0006320114267751725
-3.737272085718773,0.0006285198262352687
-3.7323497523995184,0.0006245135872486596
-3.7274274190802634,0.0006200083442882004
-3.7225050857610085,0.0006150213528570564
-3.717582752441754,0.0006095714588539997
-3.712660419122499,0.0006036790622988564
-3.7077380858032445,0.0005973660752193882
-3.7028157524839895,0.0005906558735183087
-3.697893419164735,0.0005835732426613116
-3.69297108584548,0.0005761443170547442
-3.6880487525262255,0.0005683965130204305
-3.6831264192069706,0.0005603584553140611
-3.678204085887716,0.0005520598971827106
-3.673281752568461,0.0005435316340103441
-3.668359419249206,0.00053480541065698
-3.6634370859299517,0.0005259138226602483
-3.6585147526106967,0.0005168902115322976
-3.653592419291442,0.0005077685544515875
-3.6486700859721872,0.0004985833487208546
-3.6437477526529327,0.0004893694914281516
-3.6388254193336778,0.00048016215481819224
-3.6339030860144232,0.00047099665795048706
-3.6289807526951683,0.00046190833528002295
-3.6240584193759138,0.00045293240286427283
-3.619136086056659,0.0004441038229497235
-3.614213752737404,0.0004354571677487734
-3.6092914194181493,0.00042702648325801396
-3.6043690860988944,0.000418845154010028
-3.59944675277964,0.0004109457696786917
-3.594524419460385,0.0004033599944826549
-3.5896020861411304,0.00039611844034243004
-3.5846797528218755,0.0003892505447515848
-3.579757419502621,0.00038278445431748354
-3.574835086183366,0.0003767469149107139
-3.5699127528641115,0.0003711631693374684
-3.5649904195448565,0.00036605686341487087
-3.5600680862256016,0.0003614499612831362
-3.555145752906347,0.00035736267073543937
-3.550223419587092,0.000353813379282239
-3.5453010862678376,0.0003508186015941245
-3.5403787529485826,0.00034839293888792866
-3.535456419629328,0.00034654905072953324
-3.530534086310073,0.0003452976396355889
-3.5256117529908186,0.00034464744875002673
-3.5206894196715637,0.0003446052727663629
-3.515767086352309,0.00034517598215542955
-3.510844753033054,0.00034636256063964865
-3.5059224197137997,0.00034816615573891874
-3.5010000863945447,0.00035058614209364236
-3.49607775307529,0.00035362019714689497
-3.4911554197560353,0.0003572643886523841
-3.4862330864367803,0.0003615132733519183
-3.481310753117526,0.00036636000605624885
-3.476388419798271,0.00037179645824757246
-3.4714660864790163,0.0003778133452203153
-3.4665437531597614,0.00038440036067612093
-3.461621419840507,0.00039154631759751035
-3.456699086521252,0.00039923929414466264
-3.4517767532019974,0.0004074667832457135
-3.4468544198827424,0.0004162158444891151
-3.4419320865634875,0.00042547325688042925
-3.437009753244233,0.0004352256709860003
-3.432087419924978,0.0004454597589646503
-3.4271650866057235,0.0004561623609801446
-3.4222427532864685,0.0004673206264918378
-3.417320419967214,0.0004789221489436557
-3.412398086647959,0.0004909550924055289
-3.4074757533287046,0.000503408308777098
-3.4025534200094496,0.0005162714442252664
-3.397631086690195,0.0005295350336154553
-3.39270875337094,0.0005431905817870619
-3.387786420051685,0.0005572306306401847
-3.3828640867324307,0.0005716488111192214
-3.3779417534131757,0.0005864398793190839
-3.373019420093921,0.0006015997360847847
-3.3680970867746662,0.0006171254296322981
-3.3631747534554117,0.0006330151408842771
-3.3582524201361568,0.0006492681513853293
-3.3533300868169023,0.0006658847938377788
-3.3484077534976473,0.0006828663854806793
-3.343485420178393,0.0007002151447129817
-3.338563086859138,0.0007179340915436927
-3.333640753539883,0.0007360269326295854
-3.3287184202206284,0.0007544979318320488
-3.3237960869013734,0.0007733517673920443
-3.318873753582119,0.0007925933769785398
-3.313951420262864,0.0008122277920124127
-3.3090290869436094,0.0008322599628014932
-3.3041067536243545,0.0008526945761429816
-3.2991844203051,0.0008735358671538296
-3.294262086985845,0.0008947874271751921
-3.2893397536665905,0.0009164520096692913
-3.2844174203473355,0.000938531336073703
-3.2794950870280806,0.0009610259036096358
-3.274572753708826,0.000983934797051056
-3.269650420389571,0.0010072555064471883
-3.2647280870703166,0.001030983752763337
-3.2598057537510616,0.0010551133233470122
-3.254883420431807,0.0010796359190587135
-3.249961087112552,0.0011045410148100843
-3.2450387537932976,0.0011298157351444238
-3.2401164204740427,0.0011554447463646422
-3.235194087154788,0.0011814101665706678
-3.230271753835533,0.001207691494809232
-3.2253494205162783,0.0012342655603687913
-3.2204270871970238,0.0012611064930688337
-3.215504753877769,0.001288185715205295
-3.2105824205585143,0.001315471955612657
-3.2056600872392593,0.0013429312861062276
-3.200737753920005,0.0013705271803622354
-3.19581542060075,0.0013982205950891224
-3.1908930872814953,0.0014259700731460434
-3.1859707539622404,0.0014537318680648281
-3.181048420642986,0.0014814600892444907
-3.176126087323731,0.0015091068669061403
-3.171203754004476,0.0015366225357260205
-3.1662814206852214,0.001563955835908154
-3.1613590873659665,0.0015910541303144482
-3.156436754046712,0.0016178636361422055
-3.151514420727457,0.001644329669529307
-3.1465920874082025,0.0016703969013732306
-3.1416697540889476,0.0016960096225756421
-3.136747420769693,0.0017211120168695027
-3.131825087450438,0.001745648439347644
-3.1269027541311836,0.0017695636987952734
-3.1219804208119286,0.0017928033419297024
-3.1170580874926737,0.0018153139376716745
-3.112135754173419,0.0018370433596075636
-3.107213420854164,0.0018579410648586984
-3.1022910875349097,0.001877958367642181
-3.0973687542156547,0.001897048705890607
-3.0924464208964,0.0019151678993968447
-3.0875240875771452,0.0019322743980551233
-3.0826017542578907,0.0019483295188883927
-3.077679420938636,0.0019632976706745304
-3.0727570876193813,0.001977146565115805
-3.0678347543001263,0.001989847413627777
-3.0629124209808714,0.002001375108959514
-3.057990087661617,0.0020117083909939083
-3.053067754342362,0.0020208299962070327
-3.0481454210231074,0.0020287267903991
-3.0432230877038524,0.0020353898844312625
-3.038300754384598,0.0020408147328210553
-3.033378421065343,0.0020450012151617025
-3.0284560877460884,0.00204795370042784
-3.0235337544268335,0.0020496810943252254
-3.018611421107579,0.00205019686992004
-3.013689087788324,0.0020495190818548715
-3.008766754469069,0.0020476703645155004
-3.0038444211498145,0.0020446779145615202
-2.9989220878305596,0.002040573458268045
-2.993999754511305,0.002035393204152663
-2.98907742119205,0.0020291777813762407
-2.9841550878727956,0.0020219721644134103
-2.9792327545535406,0.0020138255844851646
-2.974310421234286,0.0020047914282377835
-2.969388087915031,0.0019949271241369877
-2.9644657545957767,0.0019842940170257213
-2.9595434212765217,0.001972957231272679
-2.9546210879572667,0.0019609855229120177
-2.9496987546380122,0.0019484511211525224
-2.9447764213187573,0.001935429559608376
-2.9398540879995028,0.0019219994975844396
-2.934931754680248,0.0019082425317312884
-2.9300094213609933,0.0018942429983736242
-2.9250870880417383,0.001880087766809646
-2.920164754722484,0.0018658660238807107
-2.915242421403229,0.0018516690501203664
-2.9103200880839744,0.001837589987808974
-2.9053977547647194,0.0018237236012873664
-2.9004754214454644,0.0018101660299189165
-2.89555308812621,0.0017970145341327792
-2.890630754806955,0.001784367235035833
-2.8857084214877005,0.0017723228481415082
-2.8807860881684455,0.0017609804118309674
-2.875863754849191,0.0017504390112396823
-2.870941421529936,0.0017407974983404267
-2.8660190882106815,0.0017321542090793646
-2.8610967548914266,0.001724606678508156
-2.856174421572172,0.001718251354943287
-2.851252088252917,0.0017131833142702002
-2.846329754933662,0.0017094959755962064
-2.8414074216144076,0.001707280819534418
-2.8364850882951527,0.0017066271104785868
-2.831562754975898,0.0017076216242923603
-2.826640421656643,0.0017103483828973254
-2.8217180883373887,0.001714888397289227
-2.8167957550181337,0.0017213194205461385
-2.811873421698879,0.0017297157124132184
-2.8069510883796243,0.0017401478170543383
-2.8020287550603697,0.0017526823555512744
-2.797106421741115,0.0017673818347017228
-2.79218408842186,0.0017843044736277763
-2.7872617551026053,0.0018035040496408583
-2.7823394217833504,0.0018250297647327829
-2.777417088464096,0.001848926133966547
-2.772494755144841,0.0018752328969258714
-2.7675724218255864,0.0019039849532570263
-2.7626500885063314,0.001935212323188898
-2.757727755187077,0.0019689401337640577
-2.752805421867822,0.0020051886313392497
-2.7478830885485674,0.002043973220736725
-2.7429607552293125,0.00208530453123551
-2.7380384219100575,0.00212918850939553
-2.733116088590803,0.0021756265385052542
-2.728193755271548,0.0022246155842375465
-2.7232714219522935,0.0022761483658916976
-2.7183490886330386,0.002330213552394919
-2.713426755313784,0.0023867959820337847
-2.708504421994529,0.0024458769046877132
-2.7035820886752746,0.0025074342451494175
-2.6986597553560197,0.002571442885933875
-2.693737422036765,0.002637874967809456
-2.68881508871751,0.002706700206126872
-2.6838927553982552,0.002777886220878989
-2.6789704220790007,0.002851398878296718
-2.6740480887597458,0.0029272026416753555
-2.6691257554404912,0.0030052609290334015
-2.6642034221212363,0.0030855364751285336
-2.6592810888019818,0.0031679916953025744
-2.654358755482727,0.0032525890485872594
-2.6494364221634723,0.003339291397488703
-2.6445140888442173,0.0034280623618693565
-2.639591755524963,0.0035188666643679797
-2.634669422205708,0.0036116704648423495
-2.629747088886453,0.003706441681377466
-2.6248247555671984,0.0038031502954826157
-2.6199024222479435,0.0039017686391982845
-2.614980088928689,0.004002271661947464
-2.610057755609434,0.004104637175099034
-2.6051354222901795,0.004208846072355485
-2.6002130889709245,0.0043148825242434255
-2.59529075565167,0.004422734145157994
-2.590368422332415,0.004532392131604286
-2.5854460890131605,0.004643851370481511
-2.5805237556939056,0.004757110516466392
-2.5756014223746506,0.004872172037779968
-2.570679089055396,0.0049890422298513315
-2.565756755736141,0.005107731196634671
-2.5608344224168866,0.005228252799584429
-2.5559120890976317,0.005350624574544577
-2.550989755778377,0.005474867617067766
-2.546067422459122,0.00560100643693924
-2.5411450891398677,0.005729068782940286
-2.5362227558206127,0.005859085439149966
-2.5313004225013582,0.005991089994336549
-2.5263780891821033,0.006125118586247327
-2.5214557558628483,0.006261209622849859
-2.516533422543594,0.006399403482813981
-2.511611089224339,0.006539742197751122
-2.5066887559050843,0.006682269118936976
-2.5017664225858294,0.0068270285714391865
-2.496844089266575,0.006974065498745505
-2.49192175594732,0.0071234251011412925
-2.4869994226280654,0.007275152471213096
-2.4820770893088104,0.007429292229952103
-2.477154755989556,0.007585888167004423
-2.472232422670301,0.007744982888648784
-2.467310089351046,0.007906617477083627
-2.4623877560317915,0.00807083116457074
-2.4574654227125365,0.008237661025906222
-2.452543089393282,0.008407141692575233
-2.447620756074027,0.008579305091789134
-2.4426984227547726,0.008754180213406952
-2.4377760894355176,0.0089317929075029
-2.432853756116263,0.00911216571506026
-2.427931422797008,0.009295317733953999
-2.4230090894777536,0.00948126452202614
-2.4180867561584987,0.009670018038666094
-2.4131644228392437,0.009861586625885967
-2.408242089519989,0.010055975029428336
-2.4033197562007342,0.010253184459974377
-2.3983974228814797,0.010453212694026146
-2.3934750895622248,0.01065605421353892
-2.3885527562429703,0.010861700382870147
-2.3836304229237153,0.011070139661110243
-2.378708089604461,0.011281357847362977
-2.373785756285206,0.011495338356067426
-2.3688634229659513,0.011712062518997583
-2.3639410896466964,0.011931509910157706
-2.3590187563274414,0.012153658689404538
-2.354096423008187,0.012378485960300015
-2.349174089688932,0.012605968137409815
-2.3442517563696774,0.01283608131804951
-2.3393294230504225,0.013068801653320673
-2.334407089731168,0.013304105713199954
-2.329484756411913,0.013541970840433196
-2.3245624230926585,0.013782375488057975
-2.3196400897734035,0.014025299535526545
-2.314717756454149,0.014270724578631738
-2.309795423134894,0.01451863418874582
-2.304873089815639,0.014769014137270449
-2.2999507564963846,0.015021852581655191
-2.2950284231771296,0.015277140209870886
-2.290106089857875,0.015534870340816333
-2.28518375653862,0.015795038978783232
-2.2802614232193656,0.01605764482079683
-2.2753390899001107,0.016322689216378868
-2.270416756580856,0.016590176080034075
-2.265494423261601,0.016860111757528183
-2.2605720899423467,0.017132504847796354
-2.2556497566230918,0.01740736598307519
-2.250727423303837,0.017684707570585316
-2.2458050899845823,0.017964543499786594
-2.2408827566653273,0.018246888819866046
-2.235960423346073,0.018531759392705453
-2.231038090026818,0.018819171527071472
-2.2261157567075633,0.01910914160019571
-2.2211934233883084,0.01940168567323139
-2.216271090069054,0.01969681910729193
-2.211348756749799,0.019994556186886468
-2.2064264234305444,0.02029490975756012
-2.2015040901112894,0.020597890884420454
-2.1965817567920345,0.020903508537990938
-2.19165942347278,0.021211769313469096
-2.186737090153525,0.02152267718899454
-2.1818147568342705,0.021836233327946666
-2.1768924235150156,0.022152435929613128
-2.171970090195761,0.022471280131794363
-2.167047756876506,0.022792757968059095
-2.1621254235572516,0.023116858381451624
-2.1572030902379966,0.023443567295485558
-2.152280756918742,0.023772867742262352
-2.147358423599487,0.02410474004653981
-2.142436090280232,0.02443916206356836
-2.1375137569609777,0.02477610946752569
-2.1325914236417227,0.02511555608643494
-2.127669090322468,0.025457474278568867
-2.1227467570032132,0.025801835344531694
-2.1178244236839587,0.026148609968502982
-2.1129020903647038,0.026497768681522545
-2.1079797570454493,0.026849282339221694
-2.1030574237261943,0.027203122606065677
-2.09813509040694,0.027559262437978006
-2.093212757087685,0.0279176765551785
-2.08829042376843,0.028278341897185384
-2.0833680904491754,0.02864123805220896
-2.0784457571299204,0.029006347653600856
-2.073523423810666,0.02937365673661136
-2.068601090491411,0.029743155049445524
-2.0636787571721564,0.030114836313477437
-2.0587564238529015,0.030488698428477186
-2.053834090533647,0.030864743619803542
-2.048911757214392,0.03124297852570467
-2.0439894238951375,0.03162341422412134
-2.0390670905758825,0.03200606619968816
-2.0341447572566276,0.032390954252946864
-2.029222423937373,0.03277810235510215
-2.024300090618118,0.033167538452935755
-2.0193777572988636,0.033559294229725076
-2.0144554239796086,0.03395340482916302
-2.009533090660354,0.034349908550318
-2.004610757341099,0.0347488465225917
-1.9996884240218444,0.03515026237039514
-1.9947660907025897,0.035554201877861694
-1.989843757383335,0.035960712664323866
-1.9849214240640802,0.03636984388149245
