Values,Density
-5.23364859558592,2.764947000521989e-7
-5.2292115128779475,2.870708366020658e-7
-5.224774430169976,3.0253529886836716e-7
-5.220337347462004,3.231066468822874e-7
-5.2159002647540325,3.490664877980887e-7
-5.21146318204606,3.807619350648661e-7
-5.207026099338089,4.1860850955033335e-7
-5.2025890166301165,4.6309348775142034e-7
-5.198151933922145,5.147797003113297e-7
-5.193714851214173,5.743097832855426e-7
-5.1892777685062015,6.424108827396413e-7
-5.184840685798229,7.198998127067036e-7
-5.180403603090258,8.076886638119785e-7
-5.1759665203822856,9.067908586235518e-7
-5.171529437674314,1.0183276464292845e-6
-5.167092354966342,1.1435350280308842e-6
-5.1626552722583705,1.2837710990365458e-6
-5.158218189550398,1.4405237939718596e-6
-5.153781106842427,1.6154190136119517e-6
-5.149344024134455,1.8102291085841937e-6
-5.144906941426483,2.0268816946222845e-6
-5.140469858718511,2.267468762168212e-6
-5.1360327760105395,2.53425604440638e-6
-5.131595693302567,2.8296925972115528e-6
-5.127158610594596,3.1564205419387648e-6
-5.122721527886624,3.5172849127684813e-6
-5.118284445178652,3.915343545823902e-6
-5.11384736247068,4.353876938367751e-6
-5.109410279762709,4.836398002416864e-6
-5.104973197054736,5.36666162398447e-6
-5.100536114346765,5.94867393921561e-6
-5.096099031638793,6.586701223970648e-6
-5.09166194893082,7.2852782920691805e-6
-5.087224866222849,8.049216285069272e-6
-5.082787783514877,8.883609732831393e-6
-5.078350700806905,9.793842756060378e-6
-5.073913618098933,1.0785594275392052e-5
-5.069476535390962,1.1864842086227456e-5
-5.065039452682989,1.3037865653292569e-5
-5.060602369975018,1.431124747492199e-5
-5.056165287267046,1.569187286245763e-5
-5.051728204559074,1.7186927979362387e-5
-5.047291121851102,1.8803895981783086e-5
-5.042854039143131,2.055055110409404e-5
-5.038416956435158,2.243495053196043e-5
-5.033979873727187,2.4465423912326673e-5
-5.029542791019215,2.6650560349589236e-5
-5.025105708311243,2.899919274787846e-5
-5.020668625603271,3.152037936591731e-5
-5.0162315428953,3.422338246068454e-5
-5.011794460187327,3.711764391015754e-5
-5.007357377479356,4.021275771776134e-5
-5.002920294771384,4.351843931982985e-5
-4.998483212063412,4.7044491634583296e-5
-4.99404612935544,5.080076781261919e-5
-4.989609046647469,5.4797130671076916e-5
-4.9851719639394965,5.904340882040976e-5
-4.980734881231525,6.354934951714741e-5
-4.976297798523553,6.832456830704187e-5
-4.971860715815581,7.337849555120665e-5
-4.967423633107609,7.872031996318529e-5
-4.962986550399638,8.435892931343836e-5
-4.9585494676916655,9.030284849662062e-5
-4.954112384983693,9.6560175189421e-5
-4.949675302275722,0.00010313851336333363
-4.94523821956775,0.00011004490495226948
-4.940801136859778,0.00011728576001094476
-4.936364054151806,0.00012486678573458976
-4.9319269714438345,0.0001327929147449114
-4.927489888735862,0.00014106823308087518
-4.923052806027891,0.000149695908362113
-4.918615723319919,0.00015867811862357167
-4.914178640611947,0.00016801598234530285
-4.909741557903975,0.00017770949022491433
-4.9053044751960035,0.00018775743925947275
-4.900867392488031,0.00019815736972027265
-4.89643030978006,0.0002089055056150313
-4.891993227072088,0.00021999669923949972
-4.887556144364116,0.00023142438042175056
-4.883119061656144,0.00024318051106054367
-4.878681978948173,0.0002552555455490671
-4.8742448962402,0.0002676383976617999
-4.869807813532229,0.000280316414462245
-4.865370730824257,0.0002932753577613162
-4.860933648116285,0.00030649939362651507
-4.856496565408313,0.000319971090401619
-4.852059482700342,0.0003336714256530135
-4.847622399992369,0.00034757980240990305
-4.843185317284398,0.0003616740750091718
-4.838748234576426,0.00037593058479562513
-4.834311151868454,0.0003903242058626577
-4.829874069160482,0.0004048284009501024
-4.825436986452511,0.00041941528753975527
-4.820999903744538,0.0004340557141156026
-4.816562821036567,0.0004487193464737804
-4.812125738328595,0.0004633747638867064
-4.807688655620622,0.00047798956484411403
-4.803251572912651,0.0004925304820089516
-4.798814490204679,0.0005069635059446673
-4.794377407496707,0.0005212540170882879
-4.789940324788735,0.0005353669253645443
-4.785503242080764,0.0005492668167584105
-4.7810661593727914,0.0005629181060916727
-4.77662907666482,0.0005762851951800207
-4.772191993956848,0.0005893326354833722
-4.767754911248876,0.0006020252943055374
-4.763317828540904,0.0006143285235477719
-4.758880745832933,0.0006262083299786517
-4.7544436631249605,0.0006376315459466209
-4.750006580416989,0.0006485659994347817
-4.745569497709017,0.0006589806823391539
-4.741132415001045,0.0006688459158444363
-4.736695332293073,0.0006781335117694645
-4.732258249585102,0.000686816928766848
-4.7278211668771295,0.0006948714222805227
-4.723384084169158,0.0007022741871935551
-4.718947001461186,0.0007090044921393493
-4.7145099187532145,0.0007150438044949206
-4.710072836045242,0.000720375905134428
-4.705635753337271,0.0007249869920831209
-4.7011986706292985,0.000728865772288409
-4.696761587921327,0.0007320035408007464
-4.692324505213355,0.0007343942467473857
-4.6878874225053835,0.0007360345455697664
-4.683450339797411,0.0007369238370967743
-4.67901325708944,0.0007370642891218054
-4.6745761743814676,0.0007364608462589045
-4.670139091673495,0.0007351212239563171
-4.665702008965524,0.000733055887653003
-4.661264926257552,0.000730278017169933
-4.65682784354958,0.0007268034565329762
-4.652390760841608,0.0007226506495268542
-4.647953678133637,0.0007178405613815358
-4.643516595425664,0.000712396587086675
-4.639079512717693,0.0007063444469232183
-4.634642430009721,0.0006997120698861159
-4.630205347301749,0.0006925294657530168
-4.625768264593777,0.000684828586626815
-4.621331181885806,0.0006766431788446658
-4.616894099177833,0.0006680086262051063
-4.612457016469862,0.0006589617855136953
-4.60801993376189,0.0006495408154896243
-4.603582851053918,0.0006397850001050309
-4.599145768345946,0.0006297345674569632
-4.594708685637975,0.0006194305052809254
-4.590271602930002,0.0006089143742248754
-4.585834520222031,0.0005982281199976847
-4.581397437514059,0.000587413885493486
-4.576960354806087,0.0005765138239781503
-4.572523272098115,0.0005655699143912174
-4.568086189390144,0.0005546237797883213
-4.563649106682171,0.0005437165099033067
-4.5592120239742,0.0005328884887650792
-4.554774941266228,0.0005221792282513668
-4.550337858558256,0.0005116272084029205
-4.545900775850284,0.0005012697252605655
-4.541463693142313,0.0004911427469235993
-4.53702661043434,0.0004812807784568135
-4.532589527726368,0.0004717167362057878
-4.528152445018397,0.0004624818320063187
-4.5237153623104245,0.00045360546770162324
-4.519278279602453,0.00044511514030626254
-4.514841196894481,0.0004370363580834813
-4.510404114186509,0.00042939256772914214
-4.505967031478537,0.0004222050927850801
-4.501529948770566,0.0004154930833328435
-4.4970928660625935,0.00040927347695342287
-4.492655783354622,0.00040356097087143605
-4.48821870064665,0.0003983680051408839
-4.4837816179386785,0.0003937047566697216
-4.479344535230706,0.00038957914382382886
-4.474907452522735,0.000385996841300168
-4.4704703698147625,0.00038296130490748925
-4.466033287106791,0.0003804738058505869
-4.461596204398819,0.000378533474070436
-4.4571591216908475,0.00037713735015774963
-4.452722038982875,0.0003762804453226465
-4.448284956274904,0.0003759558088746312
-4.443847873566932,0.00037615460264323053
-4.43941079085896,0.0003768661817456359
-4.434973708150988,0.0003780781810954481
-4.4305366254430165,0.0003797766070283426
-4.426099542735044,0.0003819459334152425
-4.421662460027073,0.0003845692016270219
-4.417225377319101,0.00038762812371255506
-4.412788294611129,0.0003911031881546345
-4.408351211903157,0.000394973767574594
-4.4039141291951855,0.00039921822776424476
-4.399477046487213,0.0004038140374379301
-4.395039963779241,0.0004087378781110762
-4.39060288107127,0.00041396575353380705
-4.386165798363297,0.00041947309812701006
-4.381728715655326,0.00042523488389528685
-4.377291632947354,0.00043122572531778536
-4.372854550239382,0.00043741998174913477
-4.36841746753141,0.0004437918568937771
-4.363980384823439,0.00045031549495375134
-4.359543302115466,0.00045696507308516654
-4.355106219407495,0.0004637148898380128
-4.350669136699523,0.0004705394492936499
-4.346232053991551,0.0004774135406555441
-4.341794971283579,0.00048431231309152556
-4.337357888575608,0.0004912113456674583
-4.332920805867635,0.0004980867122568455
-4.328483723159664,0.0005049150413513337
-4.324046640451692,0.0005116735707444281
-4.31960955774372,0.0005183401970953877
-4.315172475035748,0.0005248935204286154
-4.310735392327777,0.000531312883657431
-4.306298309619804,0.000537578407260611
-4.301861226911833,0.0005436710192762567
-4.297424144203861,0.0005495724808069619
-4.292987061495889,0.0005552654072636387
-4.288549978787917,0.0005607332855984415
-4.284112896079946,0.0005659604878033159
-4.2796758133719734,0.0005709322809669404
-4.275238730664002,0.0005756348342016021
-4.27080164795603,0.0005800552227594319
-4.266364565248058,0.0005841814296675685
-4.261927482540086,0.0005880023452133065
-4.257490399832115,0.0005915077646083816
-4.2530533171241425,0.0005946883841578404
-4.24861623441617,0.0005975357962471756
-4.244179151708199,0.0006000424834491508
-4.2397420690002265,0.0006022018120328126
-4.235304986292255,0.000604008025137534
-4.230867903584283,0.0006054562358484422
-4.2264308208763115,0.0006065424203838682
-4.221993738168339,0.0006072634115742159
-4.217556655460368,0.0006076168927796333
-4.213119572752396,0.0006076013923597967
-4.208682490044424,0.0006072162787733176
-4.204245407336452,0.000606461756348986
-4.1998083246284805,0.0006053388617333483
-4.195371241920508,0.0006038494609831163
-4.190934159212537,0.0006019962472363777
-4.186497076504565,0.0005997827388594251
-4.182059993796593,0.0005972132779372141
-4.177622911088621,0.0005942930289394854
-4.1731858283806496,0.0005910279773723021
-4.168748745672677,0.0005874249281940108
-4.164311662964706,0.0005834915037571803
-4.159874580256734,0.0005792361410168201
-4.155437497548762,0.0005746680877320026
-4.15100041484079,0.0005697973973778636
-4.146563332132819,0.0005646349224780189
-4.142126249424846,0.0005591923060660892
-4.137689166716875,0.0005534819709886313
-4.133252084008903,0.0005475171067666207
-4.128815001300931,0.0005413116537460461
-4.124377918592959,0.0005348802842828487
-4.119940835884988,0.0005282383807264784
-4.115503753177015,0.0005214020099907068
-4.111066670469043,0.0005143878945261665
-4.106629587761072,0.0005072133795396838
-4.102192505053099,0.0004998963963377817
-4.097755422345128,0.0004924554217081963
-4.093318339637156,0.00048490943328901226
-4.088881256929184,0.00047727786091515114
-4.084444174221212,0.00046958053397253615
-4.080007091513241,0.0004618376248297601
-4.075570008805268,0.0004540695884605447
-4.071132926097297,0.00044629709840903137
-4.066695843389325,0.00043854097929326786
-4.062258760681353,0.00043082213607956426
-4.057821677973381,0.0004231614804003328
-4.05338459526541,0.0004155798542237366
-4.0489475125574375,0.0004080979512178923
-4.044510429849466,0.0004007362361847424
-4.040073347141494,0.0003935148629681546
-4.035636264433522,0.00038645359126474824
-4.03119918172555,0.00037957170279315656
-4.026762099017579,0.0003728879172922115
-4.0223250163096065,0.00036642030883758236
-4.017887933601635,0.0003601862229777259
-4.013450850893663,0.0003542021951970535
-4.009013768185691,0.00034848387122122723
-4.004576685477719,0.0003430459296767229
-4.000139602769748,0.00033790200761737695
-3.9957025200617755,0.00033306462941867397
-3.9912654373538037,0.0003285451395340839
-3.986828354645832,0.0003243536395896563
-3.98239127193786,0.0003204989302758301
-3.977954189229888,0.0003169884584745767
-3.9735171065219164,0.00031382827003218665
-3.9690800238139445,0.00031102296856224364
-3.9646429411059727,0.0003085756806304528
-3.960205858398001,0.00030648802763930203
-3.955768775690029,0.0003047601046935189
-3.951331692982057,0.00030339046668897973
-3.9468946102740854,0.0003023761218258203
-3.9424575275661136,0.0003017125327033632
-3.9380204448581417,0.0003013936251112237
-3.93358336215017,0.00030141180458356787
-3.929146279442198,0.000301757980737144
-3.9247091967342262,0.0003024215993662621
-3.9202721140262544,0.00030339068221940657
-3.9158350313182826,0.0003046518743338583
-3.9113979486103108,0.00030619049875689475
-3.906960865902339,0.00030799061843299336
-3.9025237831943667,0.00031003510499214015
-3.898086700486395,0.00031230571412575736
-3.893649617778423,0.0003147831671926754
-3.889212535070451,0.0003174472386577032
-3.8847754523624793,0.00032027684891931807
-3.8803383696545075,0.00032325016205007884
-3.8759012869465357,0.0003263446879337162
-3.871464204238564,0.00032953738825168555
-3.867027121530592,0.00033280478574300443
-3.86259003882262,0.000336123076133385
-3.8581529561146484,0.00033946824210918936
-3.8537158734066765,0.0003428161686933745
-3.8492787906987047,0.0003461427593651756
-3.844841707990733,0.00034942405225824036
-3.840404625282761,0.000352636335764947
-3.8359675425747892,0.00035575626287588646
-3.8315304598668174,0.00035876096358745946
-3.8270933771588456,0.0003616281547204614
-3.8226562944508737,0.00036433624650750174
-3.818219211742902,0.0003668644453246189
-3.81378212903493,0.000369192851969527
-3.8093450463269583,0.00037130255491509
-3.8049079636189864,0.00037317571800100924
-3.8004708809110146,0.0003747956620645809
-3.7960337982030428,0.00037614694005286275
-3.791596715495071,0.0003772154052034682
-3.787159632787099,0.00037798827193070983
-3.7827225500791273,0.000378454169105244
-3.7782854673711554,0.00037860318547035254
-3.7738483846631836,0.00037842690699356474
-3.769411301955212,0.0003779184460121904
-3.7649742192472395,0.00037707246208878997
-3.7605371365392677,0.0003758851745550573
-3.756100053831296,0.00037435436678182055
-3.751662971123324,0.0003724793822704464
-3.747225888415352,0.00037026111272649154
-3.7427888057073804,0.00036770197832440565
-3.7383517229994085,0.00036480590043729
-3.7339146402914367,0.0003615782671508305
-3.729477557583465,0.00035802589193535683
-3.725040474875493,0.00035415696589391477
-3.7206033921675212,0.00034998100404776133
-3.7161663094595494,0.0003455087861587297
-3.7117292267515776,0.00034075229262058027
-3.7072921440436057,0.00033572463598205426
-3.702855061335634,0.00033043998868502455
-3.698417978627662,0.0003249135076213508
-3.6939808959196903,0.00031916125612325985
-3.6895438132117184,0.00031320012400923997
-3.6851067305037466,0.00030704774630782583
-3.6806696477957748,0.00030072242127828636
-3.676232565087803,0.0002942430283357153
-3.671795482379831,0.00028762894647298143
-3.6673583996718593,0.00028089997375216336
-3.6629213169638875,0.00027407624840897205
-3.6584842342559156,0.00026717817208837813
-3.654047151547944,0.00026022633568914544
-3.649610068839972,0.00025324144825996514
-3.645172986132,0.00024624426934612836
-3.6407359034240283,0.00023925554513901798
-3.6362988207160565,0.00023229594873526438
-3.6318617380080847,0.0002253860247586198
-3.627424655300113,0.00021854613854869337
-3.6229875725921405,0.00021179643006486587
-3.6185504898841687,0.00020515677260257714
-3.614113407176197,0.00019864673636396657
-3.609676324468225,0.000192285556871008
-3.6052392417602532,0.00018609210815942467
-3.6008021590522814,0.00018008488063857991
-3.5963650763443096,0.00017428196345435631
-3.5919279936363377,0.00016870103114798723
-3.587490910928366,0.00016335933435587813
-3.583053828220394,0.00015827369426094778
-3.5786167455124223,0.00015346050046425447
-3.5741796628044504,0.00014893571191756938
-3.5697425800964786,0.00014471486052667487
-3.5653054973885068,0.00014081305701205832
-3.560868414680535,0.00013724499859733147
-3.556431331972563,0.00013402497807680352
-3.5519942492645913,0.00013116689381063168
-3.5475571665566195,0.0001286842601875976
-3.5431200838486476,0.00012659021809979104
-3.538683001140676,0.0001248975449789705
-3.534245918432704,0.00012361866395670107
-3.529808835724732,0.00012276565172657933
-3.5253717530167603,0.000122350244709038
-3.5209346703087885,0.00012238384314550849
-3.5164975876008167,0.00012287751277929165
-3.512060504892845,0.0001238419838153343
-3.507623422184873,0.0001252876468910355
-3.503186339476901,0.00012722454583138226
-3.4987492567689293,0.00012966236700804462
-3.4943121740609575,0.00013261042517078575
-3.4898750913529857,0.0001360776456696966
-3.4854380086450134,0.00014007254304020805
-3.4810009259370416,0.00014460319597557614
-3.4765638432290698,0.00014967721876895518
-3.472126760521098,0.0001553017293603534
-3.467689677813126,0.00016148331417911027
-3.4632525951051543,0.00016822799003019667
-3.4588155123971824,0.00017554116332136466
-3.4543784296892106,0.00018342758698337847
-3.4499413469812388,0.00019189131548372207
-3.445504264273267,0.0002009356583796973
-3.441067181565295,0.00021056313290179762
-3.4366300988573233,0.00022077541609468593
-3.4321930161493515,0.00023157329708133056
-3.4277559334413796,0.0002429566300420835
-3.423318850733408,0.00025492428852764287
-3.418881768025436,0.0002674741217429874
-3.414444685317464,0.0002806029134519855
-3.4100076026094923,0.0002943063441595284
-3.4055705199015205,0.0003085789572273498
-3.4011334371935487,0.0003234141295740192
-3.396696354485577,0.00033880404759437793
-3.392259271777605,0.00035473968891484853
-3.387822189069633,0.00037121081057098215
-3.3833851063616613,0.0003882059441625979
-3.3789480236536895,0.0004057123984951144
-3.3745109409457177,0.0004237162701735686
-3.370073858237746,0.000442202462556468
-3.365636775529774,0.0004611547134190236
-3.361199692821802,0.000480555631608065
-3.3567626101138304,0.0005003867428997472
-3.3523255274058585,0.0005206285451964665
-3.3478884446978867,0.0005412605731174441
-3.3434513619899144,0.000562261471957641
-3.3390142792819426,0.0005836090808996816
-3.334577196573971,0.0006052805252804855
-3.330140113865999,0.0006272523176225828
-3.325703031158027,0.0006495004670522414
-3.3212659484500553,0.000672000596639008
-3.3168288657420835,0.0006947280681040974
-3.3123917830341116,0.0007176581132603416
-3.30795470032614,0.0007407659714671749
-3.303517617618168,0.0007640270323053741
-3.299080534910196,0.0007874169826058985
-3.2946434522022243,0.000810911956899904
-3.2902063694942525,0.0008344886902992982
-3.2857692867862807,0.0008581246727626668
-3.281332204078309,0.0008817983036588789
-3.276895121370337,0.0009054890455045192
-3.272458038662365,0.0009291775757235624
-3.2680209559543933,0.0009528459352617855
-3.2635838732464215,0.0009764776728800328
-3.2591467905384497,0.001000057983953237
-3.254709707830478,0.001023573842614721
-3.250272625122506,0.0010470141261095037
-3.245835542414534,0.0010703697302513922
-3.2413984597065624,0.0010936336749254455
-3.2369613769985905,0.001116801198626883
-3.2325242942906187,0.0011398698410944944
-3.228087211582647,0.0011628395131645201
-3.223650128874675,0.001185712553055513
-3.2192130461667032,0.0012084937683800381
-3.2147759634587314,0.0012311904632767746
-3.2103388807507596,0.001253812450158421
-3.2059017980427873,0.0012763720456782923
-3.2014647153348155,0.0012988840506327724
-3.1970276326268436,0.0013213657136305589
-3.192590549918872,0.0013438366784827988
-3.1881534672109,0.0013663189153867057
-3.183716384502928,0.0013888366360971897
-3.1792793017949563,0.001411416193406248
-3.1748422190869845,0.0014340859653653032
-3.1704051363790127,0.0014568762248087681
-3.165968053671041,0.001479818994848569
-3.161530970963069,0.0015029478911221146
-3.157093888255097,0.0015262979516800328
-3.1526568055471254,0.0015499054555005547
-3.1482197228391535,0.0015738077307086047
-3.1437826401311817,0.0015980429536630938
-3.13934555742321,0.0016226499401509713
-3.134908474715238,0.001647667929994618
-3.130471392007266,0.0016731363664358942
-3.1260343092992944,0.0016990946717074587
-3.1215972265913225,0.0017255820202393343
-3.1171601438833507,0.0017526371109735962
-3.112723061175379,0.0017802979402766449
-3.108285978467407,0.0018086015769416368
-3.1038488957594352,0.0018375839407659689
-3.0994118130514634,0.0018672795861727765
-3.0949747303434916,0.0018977214923136879
