Values,Density
-5.561163797603319,1.9911420473528452e-7
-5.555400360337537,2.0251352361722041e-7
-5.549636923071756,2.0845831791294067e-7
-5.543873485805975,2.1700944352609497e-7
-5.538110048540193,2.2825170920004467e-7
-5.532346611274411,2.422944255231485e-7
-5.52658317400863,2.592720834138085e-7
-5.520819736742848,2.7934516014238575e-7
-5.515056299477067,3.027010561651444e-7
-5.509292862211286,3.2955516351962366e-7
-5.503529424945504,3.601520652540824e-7
-5.497765987679722,3.947668685277961e-7
-5.492002550413941,4.337066702997383e-7
-5.48623911314816,4.77312157243226e-7
-5.480475675882378,5.259593388040606e-7
-5.474712238616596,5.80061414345856e-7
-5.468948801350815,6.400707733000832e-7
-5.463185364085033,7.064811270163229e-7
-5.457421926819252,7.798297722849679e-7
-5.451658489553471,8.606999835625295e-7
-5.445895052287689,9.497235322897257e-7
-5.440131615021907,1.0475833304435245e-6
-5.434368177756126,1.155016194492875e-6
-5.428604740490345,1.2728157259001005e-6
-5.422841303224563,1.401835303893595e-6
-5.417077865958781,1.5429911831565946e-6
-5.411314428693,1.6972656917690898e-6
-5.405550991427218,1.8657105211594693e-6
-5.399787554161437,2.049450098962069e-6
-5.394024116895656,2.2496850370090637e-6
-5.388260679629874,2.4676956420777163e-6
-5.382497242364092,2.704845479761797e-6
-5.3767338050983104,2.9625849762389064e-6
-5.37097036783253,3.242455047329767e-6
-5.365206930566748,3.5460907356656135e-6
-5.359443493300966,3.875224843183974e-6
-5.353680056035185,4.23169153884826e-6
-5.347916618769403,4.6174299235400736e-6
-5.342153181503622,5.034487531804972e-6
-5.336389744237841,5.4850237488158e-6
-5.330626306972059,5.971313119076255e-6
-5.324862869706277,6.495748524542721e-6
-5.319099432440495,7.060844204240507e-6
-5.3133359951747146,7.669238591807848e-6
-5.307572557908933,8.323696940959122e-6
-5.301809120643151,9.0271137121508e-6
-5.29604568337737,9.78251468938731e-6
-5.290282246111588,1.0593058798703033e-5
-5.284518808845807,1.1462039595238824e-5
-5.278755371580026,1.2392886388721928e-5
-5.272991934314244,1.338916497475428e-5
-5.267228497048462,1.4454577939337562e-5
-5.26146505978268,1.5592964504498874e-5
-5.2557016225168995,1.6808299882356027e-5
-5.249938185251118,1.8104694104866155e-5
-5.244174747985336,1.948639029871954e-5
-5.238411310719555,2.09577623728344e-5
-5.232647873453773,2.252331208927108e-5
-5.226884436187992,2.418766548791494e-5
-5.22112099892221,2.595556863738309e-5
-5.215357561656429,2.783188268596238e-5
-5.209594124390647,2.982157818879217e-5
-5.203830687124865,3.1929728688603366e-5
-5.1980672498590845,3.41615035312319e-5
-5.192303812593303,3.652215989760621e-5
-5.186540375327521,3.90170340404377e-5
-5.18077693806174,4.165153171254918e-5
-5.175013500795958,4.443111778118167e-5
-5.169250063530177,4.736130502403131e-5
-5.163486626264395,5.044764210782385e-5
-5.157723188998614,5.3695700753903994e-5
-5.151959751732832,5.711106209992621e-5
-5.14619631446705,6.0699302271535055e-5
-5.1404328772012695,6.446597718215256e-5
-5.134669439935488,6.841660658513625e-5
-5.128906002669706,7.25566574059193e-5
-5.123142565403924,7.689152638900611e-5
-5.117379128138143,8.14265220977859e-5
-5.111615690872362,8.616684631266962e-5
-5.10585225360658,9.111757487697235e-5
-5.100088816340799,9.628363804576288e-5
-5.094325379075017,0.00010166980039829146
-5.088561941809235,0.00010728064037999682
-5.0827985045434545,0.00011312052954484154
-5.077035067277673,0.00011919361157438496
-5.071271630011891,0.00012550378115386285
-5.065508192746109,0.00013205466279084775
-5.059744755480328,0.00013884958966610406
-5.0539813182145465,0.00014589158261087837
-5.048217880948765,0.00015318332930674104
-5.042454443682984,0.00016072716380968743
-5.036691006417202,0.00016852504650119102
-5.03092756915142,0.00017657854457240468
-5.0251641318856395,0.00018488881314894512
-5.019400694619858,0.00019345657716540558
-5.013637257354076,0.00020228211409988386
-5.007873820088294,0.0002113652376769578
-5.002110382822513,0.0002207052826518497
-4.9963469455567315,0.00023030109078110185
-4.99058350829095,0.00024015099808900875
-4.984820071025169,0.00025025282353426277
-4.979056633759387,0.00026060385917701934
-4.973293196493605,0.0002712008619466886
-4.967529759227824,0.000282040047102243
-4.961766321962043,0.0002931170834740964
-4.956002884696261,0.00030442709057106575
-4.950239447430479,0.00031596463762783786
-4.944476010164698,0.0003277237446624743
-4.9387125728989165,0.0003396978856059687
-4.932949135633135,0.00035187999355663045
-4.927185698367354,0.0003642624682031314
-4.921422261101572,0.0003768371854515288
-4.91565882383579,0.0003895955092812712
-4.909895386570009,0.0004025283058424166
-4.904131949304228,0.00041562595979967656
-4.898368512038446,0.00042887839291369
-4.892605074772664,0.00044227508483942607
-4.886841637506883,0.00045580509611049813
-4.8810782002411015,0.00046945709326571064
-4.87531476297532,0.00048321937605968687
-4.869551325709539,0.0004970799066918927
-4.863787888443757,0.0005110263409692332
-4.858024451177975,0.0005250460613123696
-4.8522610139121936,0.0005391262114969701
-4.846497576646413,0.0005532537330148572
-4.840734139380631,0.0005674154029240257
-4.834970702114849,0.0005815978730481092
-4.829207264849068,0.0005957877103733925
-4.8234438275832865,0.0006099714384821195
-4.817680390317505,0.0006241355798512517
-4.811916953051723,0.0006382666988362512
-4.806153515785942,0.0006523514451519177
-4.80039007852016,0.0006663765976556817
-4.7946266412543785,0.0006803291082305984
-4.788863203988598,0.0006941961455629655
-4.783099766722816,0.0007079651386019889
-4.777336329457034,0.0007216238194885302
-4.771572892191253,0.0007351602657375521
-4.7658094549254715,0.0007485629414572224
-4.76004601765969,0.0007618207373897151
-4.754282580393908,0.000774923009560103
-4.748519143128127,0.0007878596163244378
-4.742755705862345,0.00080062095361021
-4.7369922685965635,0.0008131979881525302
-4.731228831330783,0.0008255822885340977
-4.725465394065001,0.0008377660538465975
-4.719701956799219,0.0008497421398037143
-4.713938519533438,0.0008615040821447657
-4.7081750822676565,0.0008730461171837685
-4.702411645001875,0.0008843631993718237
-4.696648207736093,0.0008954510157564155
-4.690884770470312,0.0009063059972394885
-4.68512133320453,0.0009169253265522599
-4.6793578959387485,0.000927306942884544
-4.673594458672968,0.0009374495431269288
-4.667831021407186,0.0009473525797030202
-4.662067584141404,0.0009570162549915606
-4.656304146875622,0.0009664415123600383
-4.6505407096098414,0.0009756300238514884
-4.64477727234406,0.000984584174592431
-4.639013835078278,0.0009933070440067658
-4.633250397812497,0.0010018023839491602
-4.627486960546715,0.0010100745938872446
-4.6217235232809335,0.0010181286932882568
-4.615960086015153,0.0010259702913838695
-4.610196648749371,0.0010336055545084218
-4.604433211483589,0.0010410411712244542
-4.598669774217807,0.00104828431546743
-4.592906336952026,0.0010553426079580805
-4.587142899686245,0.0010622240761470995
-4.581379462420463,0.0010689371129682622
-4.575616025154682,0.001075490434690178
-4.5698525878889,0.0010818930381644928
-4.5640891506231185,0.001088154157778503
-4.558325713357338,0.0010942832224220926
-4.552562276091556,0.001100289812786242
-4.546798838825774,0.0011061836193080009
-4.541035401559992,0.0011119744010757958
-4.535271964294211,0.0011176719460060033
-4.52950852702843,0.001123286032593613
-4.523745089762648,0.00112882639353094
-4.517981652496867,0.0011343026814761258
-4.512218215231085,0.001139724437239472
-4.5064547779653035,0.0011451010606383337
-4.500691340699522,0.0011504417842521236
-4.494927903433741,0.0011557556502869472
-4.489164466167959,0.0011610514907369925
-4.483401028902177,0.0011663379110025927
-4.477637591636396,0.0011716232770986323
-4.471874154370615,0.0011769157065568622
-4.466110717104833,0.0011822230630958303
-4.460347279839052,0.0011875529550996779
-4.45458384257327,0.0011929127379150632
-4.4488204053074885,0.0011983095199412964
-4.443056968041707,0.001203750172455307
-4.437293530775926,0.0012092413430794778
-4.431530093510144,0.0012147894727656122
-4.425766656244362,0.0012204008161359782
-4.420003218978581,0.0012260814649896062
-4.4142397817128,0.0012318373747498383
-4.408476344447018,0.0012376743936002542
-4.402712907181237,0.0012435982940271172
-4.396949469915455,0.0012496148064597735
-4.391186032649673,0.0012557296546777362
-4.385422595383892,0.0012619485926294825
-4.379659158118111,0.0012682774422914517
-4.373895720852329,0.0012747221321782083
-4.368132283586547,0.0012812887361036349
-4.362368846320766,0.0012879835117826366
-4.356605409054985,0.001294812938857727
-4.350841971789203,0.0013017837559335145
-4.345078534523421,0.0013089029962029715
-4.33931509725764,0.0013161780212558247
-4.333551659991858,0.0013236165526684038
-4.327788222726077,0.001331226700988182
-4.322024785460296,0.0013390169917428946
-4.316261348194514,0.0013469963881261177
-4.310497910928732,0.0013551743100336175
-4.304734473662951,0.0013635606491553612
-4.29897103639717,0.0013721657798574788
-4.293207599131388,0.0013810005656231666
-4.287444161865606,0.0013900763608594782
-4.281680724599825,0.001399405007914717
-4.275917287334043,0.001408998829195235
-4.270153850068262,0.001418870614311618
-4.264390412802481,0.0014290336022317503
-4.258626975536699,0.0014395014584620662
-4.252863538270917,0.0014502882473274338
-4.2471001010051355,0.0014614083994653401
-4.241336663739355,0.0014728766746987532
-4.235573226473573,0.0014847081204977207
-4.229809789207791,0.0014969180262845785
-4.22404635194201,0.0015095218738835174
-4.218282914676228,0.0015225352844561064
-4.212519477410447,0.001535973962304274
-4.206756040144666,0.0015498536359608468
-4.200992602878884,0.0015641899970204494
-4.195229165613102,0.0015789986371960926
-4.1894657283473205,0.001594294984111795
-4.18370229108154,0.0016100942363679246
-4.177938853815758,0.001626411298431031
-4.172175416549976,0.0016432607159178325
-4.166411979284195,0.0016606566118499144
-4.160648542018413,0.0016786126244619712
-4.154885104752632,0.0016971418471462413
-4.149121667486851,0.001716256771108711
-4.143358230221069,0.0017359692313049513
-4.137594792955287,0.0017562903562054755
-4.131831355689505,0.0017772305219213996
-4.126067918423725,0.001798799311195906
-4.120304481157943,0.0018210054777350881
-4.114541043892161,0.001843856916319983
-4.10877760662638,0.001867360639099279
-4.103014169360598,0.0018915227584219985
-4.097250732094817,0.0019163484765205643
-4.091487294829035,0.001941842082305592
-4.085723857563254,0.001968006955480225
-4.079960420297472,0.0019948455781262477
-4.07419698303169,0.002022359553855723
-4.0684335457659095,0.002050549634563248
-4.062670108500128,0.0020794157547524726
-4.056906671234346,0.0021089570733486976
-4.051143233968565,0.0021391720228488846
-4.045379796702783,0.002170058365597146
-4.039616359437002,0.0022016132569141304
-4.03385292217122,0.002233833314750044
-4.028089484905439,0.0022667146954706997
-4.022326047639657,0.002300253175333342
-4.016562610373875,0.0023344442371550193
-4.0107991731080945,0.0023692831616257647
-4.005035735842313,0.0024047651226740325
-3.999272298576531,0.0024408852862495933
-3.9935088613107497,0.0024776389118497735
-3.9877454240449683,0.002515021456082685
-3.9819819867791866,0.0025530286775328342
-3.9762185495134053,0.0025916567421702544
-3.9704551122476235,0.0026309023285263668
-3.964691674981842,0.0026707627318480333
-3.958928237716061,0.002711235966433135
-3.953164800450279,0.002752320865350073
-3.9474013631844977,0.002794017176749447
-3.941637925918716,0.002836325655981924
-3.9358744886529347,0.00287924815275807
-3.9301110513871533,0.0029227876926014853
-3.9243476141213716,0.002966948551876183
-3.9185841768555902,0.0030117363257006332
-3.9128207395898085,0.0030571579880958304
-3.907057302324027,0.003103221943759002
-3.901293865058246,0.003149938070897168
-3.895530427792464,0.0031973177546080894
-3.8897669905266827,0.0032453739103469117
-3.884003553260901,0.0032941209970762456
-3.8782401159951196,0.003343575019756344
-3.872476678729338,0.0033937535208953887
-3.8667132414635565,0.0034446755609455863
-3.8609498041977752,0.0034963616873953246
-3.8551863669319935,0.0035488338924796886
-3.849422929666212,0.0036021155594970107
-3.8436594924004304,0.0036562313977907546
-3.837896055134649,0.00371120736652613
-3.8321326178688677,0.0037670705874579755
-3.826369180603086,0.0038238492469579513
-3.8206057433373046,0.00388157248763301
-3.814842306071523,0.003940270289936612
-3.8090788688057415,0.003999973344234006
-3.80331543153996,0.00406071291384754
-3.7975519942741784,0.004122520689664955
-3.791788557008397,0.0041854286369492275
-3.7860251197426154,0.0042494688350427565
-3.780261682476834,0.004314673310704786
-3.7744982452110527,0.004381073865868938
-3.768734807945271,0.004448701900646432
-3.7629713706794896,0.0045175882324388905
-3.757207933413708,0.0045877629120563215
-3.7514444961479265,0.004659255037763453
-3.745681058882145,0.00473209256820166
-3.7399176216163634,0.004806302135150847
-3.734154184350582,0.004881908857110477
-3.7283907470848003,0.0049589361546861915
-3.722627309819019,0.0050374055687731345
-3.7168638725532372,0.005117336582524789
-3.711100435287456,0.005198746448091401
-3.7053369980216746,0.005281650019098548
-3.699573560755893,0.005366059589822933
-3.6938101234901115,0.005451984741999639
-3.6880466862243297,0.005539432200170856
-3.6822832489585484,0.005628405696455174
-3.676519811692767,0.005718905845582455
-3.6707563744269853,0.005810930031000281
-3.664992937161204,0.0059044723028146215
-3.6592294998954222,0.005999523288280493
-3.653466062629641,0.006096070115508008
-3.6477026253638596,0.006194096350993161
-3.641939188098078,0.006293581951526427
-3.6361757508322965,0.006394503230969961
-3.6304123135665147,0.00649683284233081
-3.6246488763007334,0.006600539775489633
-3.618885439034952,0.006705589370876494
-3.6131220017691703,0.0068119433493129995
-3.607358564503389,0.006919559858166457
-3.601595127237607,0.007028393533888094
-3.595831689971826,0.007138395580929255
-3.590068252706044,0.007249513866954382
-3.584304815440263,0.007361693034190167
-3.5785413781744815,0.007474874626674052
-3.5727779409086997,0.007588997233084795
-3.5670145036429184,0.007703996644763317
-3.5612510663771366,0.007819806028453662
-3.5554876291113553,0.007936356113218544
-3.549724191845574,0.008053575390911491
-3.543960754579792,0.008171390329514534
-3.538197317314011,0.008289725598581772
-3.532433880048229,0.00840850430596269
-3.526670442782448,0.008527648244915455
-3.5209070055166665,0.008647078150661097
-3.5151435682508847,0.008766713965373141
-3.5093801309851034,0.008886475110546622
-3.5036166937193216,0.009006280765643315
-3.4978532564535403,0.009126050151867831
-3.492089819187759,0.00924570281989414
-3.486326381921977,0.009365158940330173
-3.480562944656196,0.009484339595684625
-3.474799507390414,0.009603167072580677
-3.4690360701246328,0.009721565152950425
-3.4632726328588515,0.009839459402936578
-3.4575091955930697,0.009956777458232351
-3.4517457583272884,0.01007344930459535
-3.4459823210615066,0.010189407552289052
-3.4402188837957253,0.010304587703227081
-3.4344554465299435,0.010418928409623406
-3.428692009264162,0.010532371722989924
-3.422928571998381,0.010644863332364193
-3.417165134732599,0.010756352790700557
-3.4114016974668178,0.010866793728412958
-3.405638260201036,0.010976144053121764
-3.3998748229352547,0.011084366134723168
-3.3941113856694733,0.011191426974974453
-3.3883479484036916,0.011297298360867552
-3.3825845111379103,0.011401957001144974
-3.3768210738721285,0.011505384645403079
-3.371057636606347,0.01160756818531607
-3.365294199340566,0.011708499737609724
-3.359530762074784,0.011808176708512592
-3.3537673248090027,0.01190660183950816
-3.348003887543221,0.012003783234315557
-3.3422404502774397,0.012099734367124436
-3.3364770130116583,0.01219447407221225
-3.3307135757458766,0.012288026515171944
-3.3249501384800952,0.012380421146077604
-3.3191867012143135,0.01247169263501071
-3.313423263948532,0.012561880790466565
-3.307659826682751,0.012651030461248023
-3.301896389416969,0.01273919142254298
-3.2961329521511877,0.012826418246962783
-3.290369514885406,0.012912770161394898
-3.2846060776196246,0.012998310890596696
-3.278842640353843,0.01308310848851833
-3.2730792030880616,0.013167235158404438
-3.2673157658222802,0.013250767062771871
-3.2615523285564985,0.01333378412440624
-3.255788891290717,0.013416369819554581
-3.2500254540249354,0.013498610964518074
-3.244262016759154,0.013580597496869653
-3.2384985794933727,0.013662422252529463
-3.232735142227591,0.013744180739935538
-3.2269717049618096,0.013825970912538815
-3.221208267696028,0.01390789294083812
-3.2154448304302465,0.013990048985146719
-3.209681393164465,0.014072542970251335
-3.2039179558986834,0.014155480363084713
-3.198154518632902,0.014238967954486922
-3.1923910813671204,0.014323113646076056
-3.186627644101339,0.014408026243188266
-3.1808642068355577,0.014493815254780523
-3.175100769569776,0.014580590701115566
-3.1693373323039946,0.014668462929972335
-3.163573895038213,0.014757542442039188
-3.1578104577724315,0.01484793972606417
-3.1520470205066498,0.014939765104242884
-3.1462835832408684,0.015033128588233706
-3.140520145975087,0.015128139746094142
-3.1347567087093053,0.015224907580335971
-3.128993271443524,0.015323540417199482
-3.1232298341777422,0.015424145807150964
-3.117466396911961,0.015526830436510118
-3.1117029596461796,0.015631700050021635
-3.105939522380398,0.015738859384089914
-3.1001760851146165,0.015848412110308907
-3.0944126478488347,0.015960460788831322
-3.0886492105830534,0.016075106831040274
-3.082885773317272,0.016192450470909094
-3.0771223360514903,0.01631259074436266
-3.071358898785709,0.016435625475888824
-3.0655954615199272,0.016561651271586143
-3.059832024254146,0.016690763517784157
-3.0540685869883646,0.016823056384324447
-3.048305149722583,0.016958622831552535
-3.0425417124568015,0.017097554620040582
-3.0367782751910197,0.01723994232203835
-3.0310148379252384,0.01738587533363397
-3.025251400659457,0.017535441886602932
-3.0194879633936753,0.017688729058923325
-3.013724526127894,0.01784582278294818
-3.007961088862112,0.01800680785024522
-3.002197651596331,0.018171767912142037
-2.996434214330549,0.018340785475051212
-2.990670777064768,0.0185139418896951
-2.9849073397989865,0.01869131733340223
-2.9791439025332047,0.018872990784707687
-2.9733804652674234,0.019059039989558265
-2.9676170280016416,0.01924954141849676
-2.9618535907358603,0.01944457021428303
-2.956090153470079,0.019644200129495207
-2.950326716204297,0.019848503453749496
-2.944563278938516,0.020057550930273463
-2.938799841672734,0.02027141166167292
-2.933036404406953,0.020490153004836864
-2.9272729671411715,0.020713840455036957
-2.9215095298753897,0.020942537519389133
-2.9157460926096084,0.021176305579959965
-2.9099826553438266,0.02141520374691563
-2.9042192180780453,0.021659288702225856
-2.898455780812264,0.02190861453455181
-2.892692343546482,0.02216323256605908
-2.886928906280701,0.022423191172007913
-2.881165469014919,0.022688535594082362
-2.8754020317491378,0.022959307748522513
-2.8696385944833565,0.023235546030224163
-2.8638751572175747,0.023517285114063615
-2.8581117199517934,0.02380455575479142
-2.8523482826860116,0.024097384586921074
-2.8465848454202303,0.024395793926105684
-2.8408214081544485,0.024699801573563808
-2.835057970888667,0.025009420625162947
-2.829294533622886,0.025324659286815578
-2.823531096357104,0.025645520697872733
-2.8177676590913228,0.025972002764219113
-2.812004221825541,0.026304098002783282
-2.8062407845597597,0.026641793399170152
-2.8004773472939783,0.026985070280106098
-2.7947139100281966,0.02733390420235545
-2.7889504727624153,0.027688264859723522
-2.7831870354966335,0.028048116009701966
-2.777423598230852,0.028413415421242563
-2.771660160965071,0.028784114845058623
-2.765896723699289,0.029160160007756338
-2.7601332864335077,0.029541490630986315
-2.754369849167726,0.029928040476682235
-2.7486064119019447,0.030319737419317122
-2.7428429746361633,0.030716503545961605
-2.7370795373703816,0.031118255284768973
-2.7313161001046002,0.0315249035623462
