Values,Density
-11.195767153023946,6.869425295263909e-7
-11.18475533753008,6.818273743797176e-7
-11.173743522036213,6.791197578459585e-7
-11.162731706542347,6.788100981314216e-7
-11.15171989104848,6.808951616560366e-7
-11.140708075554613,6.853780513960128e-7
-11.129696260060747,6.922682059679053e-7
-11.118684444566881,7.015814087879546e-7
-11.107672629073015,7.133398075148678e-7
-11.096660813579149,7.275719439286954e-7
-11.085648998085283,7.443127941070271e-7
-11.074637182591417,7.636038187736061e-7
-11.063625367097549,7.854930241940616e-7
-11.052613551603683,8.100350330914052e-7
-11.041601736109817,8.372911662890559e-7
-11.03058992061595,8.673295342348508e-7
-11.019578105122084,9.002251393358529e-7
-11.008566289628218,9.360599883406762e-7
-10.997554474134352,9.749232153244414e-7
-10.986542658640484,1.0169112148322723e-6
-10.975530843146618,1.0621277859029776e-6
-10.964519027652752,1.1106842859043287e-6
-10.953507212158886,1.162699795512201e-6
-10.94249539666502,1.2183012936956006e-6
-10.931483581171154,1.2776238434986098e-6
-10.920471765677288,1.340810788300062e-6
-10.90945995018342,1.4080139584815576e-6
-10.898448134689554,1.4793938891144442e-6
-10.887436319195688,1.5551200477359473e-6
-10.876424503701822,1.6353710731720206e-6
-10.865412688207956,1.7203350248656823e-6
-10.85440087271409,1.8102096428634917e-6
-10.843389057220223,1.9052026186267002e-6
-10.832377241726357,2.0055318763302697e-6
-10.82136542623249,2.1114258652442944e-6
-10.810353610738623,2.2231238623636663e-6
-10.799341795244757,2.3408762863772224e-6
-10.788329979750891,2.464945021630945e-6
-10.777318164257025,2.595603753728908e-6
-10.766306348763159,2.733138314912247e-6
-10.755294533269293,2.877847040854591e-6
-10.744282717775425,3.0300411377978155e-6
-10.733270902281559,3.1900450604961618e-6
-10.722259086787693,3.3581969006231567e-6
-10.711247271293827,3.534848785971545e-6
-10.70023545579996,3.7203672898867895e-6
-10.689223640306095,3.915133851620386e-6
-10.678211824812228,4.119545206372798e-6
-10.66720000931836,4.334013826610039e-6
-10.656188193824494,4.558968372615595e-6
-10.645176378330628,4.7948541540060105e-6
-10.634164562836762,5.042133600698237e-6
-10.623152747342896,5.301286744081911e-6
-10.61214093184903,5.572811707833672e-6
-10.601129116355164,5.8572252084427776e-6
-10.590117300861298,6.155063065076691e-6
-10.57910548536743,6.46688071891631e-6
-10.568093669873564,6.793253761337194e-6
-10.557081854379698,7.13477847120547e-6
-10.546070038885832,7.492072360899393e-6
-10.535058223391966,7.86577473037807e-6
-10.5240464078981,8.256547230085353e-6
-10.513034592404233,8.665074431223486e-6
-10.502022776910366,9.092064403952481e-6
-10.4910109614165,9.538249302983804e-6
-10.479999145922633,1.000438596000405e-5
-10.468987330428767,1.0491256483146521e-5
-10.457975514934901,1.099966886243127e-5
-10.446963699441035,1.153045758148924e-5
-10.435951883947169,1.2084484234718934e-5
-10.424940068453301,1.2662638149804357e-5
-10.413928252959435,1.3265837014742607e-5
-10.402916437465569,1.3895027509510174e-5
-10.391904621971703,1.4551185941250586e-5
-10.380892806477837,1.5235318883153335e-5
-10.36988099098397,1.5948463815879804e-5
-10.358869175490105,1.6691689771567873e-5
-10.347857359996238,1.746609797958652e-5
-10.33684554450237,1.8272822513338638e-5
-10.325833729008504,1.911303093792959e-5
-10.314821913514638,1.998792495774013e-5
-10.303810098020772,2.0898741063363766e-5
-10.292798282526906,2.184675117754861e-5
-10.28178646703304,2.2833263298821863e-5
-10.270774651539174,2.3859622143001386e-5
-10.259762836045306,2.492720978091497e-5
-10.24875102055144,2.603744627259789e-5
-10.237739205057574,2.7191790296312093e-5
-10.226727389563708,2.839173977220704e-5
-10.215715574069842,2.9638832479856984e-5
-10.204703758575976,3.09346466683064e-5
-10.19369194308211,3.2280801658532074e-5
-10.182680127588243,3.367895843705074e-5
-10.171668312094376,3.513082023994321e-5
-10.16065649660051,3.663813312634835e-5
-10.149644681106643,3.820268654078666e-5
-10.138632865612777,3.982631386312274e-5
-10.127621050118911,4.151089294551969e-5
-10.116609234625045,4.325834663529096e-5
-10.105597419131179,4.507064328274557e-5
-10.094585603637311,4.694979723325653e-5
-10.083573788143445,4.889786930231286e-5
-10.072561972649579,5.091696723299641e-5
-10.061550157155713,5.3009246134362586e-5
-10.050538341661847,5.517690890028781e-5
-10.03952652616798,5.742220660766165e-5
-10.028514710674115,5.9747438892547924e-5
-10.017502895180247,6.215495430393213e-5
-10.00649107968638,6.464715063367538e-5
-9.995479264192515,6.722647522180644e-5
-9.984467448698648,6.989542523601756e-5
-9.973455633204782,7.265654792460103e-5
-9.962443817710916,7.551244084181338e-5
-9.95143200221705,7.846575204433501e-5
-9.940420186723184,8.151918025833208e-5
-9.929408371229316,8.467547501579253e-5
-9.91839655573545,8.793743675930728e-5
-9.907384740241584,9.130791691435575e-5
-9.896372924747718,9.478981792812764e-5
-9.885361109253852,9.838609327383202e-5
-9.874349293759986,0.00010209974741973941
-9.86333747826612,0.00010593383576194045
-9.852325662772252,0.00010989146451996674
-9.841313847278386,0.00011397579059444028
-9.83030203178452,0.00011819002138571417
-9.819290216290653,0.00012253741457292312
-9.808278400796787,0.00012702127785240444
-9.797266585302921,0.00013164496863482533
-9.786254769809055,0.0001364118937002009
-9.775242954315187,0.00014132550881011045
-9.764231138821321,0.0001463893182762212
-9.753219323327455,0.00015160687448471228
-9.742207507833589,0.0001569817773757078
-9.731195692339723,0.00016251767387707072
-9.720183876845857,0.00016821825729229764
-9.70917206135199,0.00017408726664150365
-9.698160245858125,0.00018012848595517572
-9.687148430364257,0.0001863457435203322
-9.67613661487039,0.00019274291107847187
-9.665124799376525,0.00019932390297467436
-9.654112983882658,0.00020609267525815208
-9.643101168388792,0.00021305322473304136
-9.632089352894926,0.0002202095879599293
-9.62107753740106,0.00022756584020720014
-9.610065721907192,0.00023512609435249977
-9.599053906413326,0.00024289449973381987
-9.58804209091946,0.0002508752409503155
-9.577030275425594,0.0002590725366123721
-9.566018459931728,0.0002674906380415961
-9.555006644437862,0.00027613382791980305
-9.543994828943996,0.0002850064188879716
-9.532983013450128,0.0002941127520946791
-9.521971197956262,0.00030345719569424643
-9.510959382462396,0.0003130441432952196
-9.49994756696853,0.0003228780123587043
-9.488935751474664,0.00033296324254756876
-9.477923935980797,0.00034330429402643385
-9.466912120486931,0.0003539056457129621
-9.455900304993065,0.00036477179348090236
-9.444888489499197,0.00037590724831542376
-9.433876674005331,0.000387316534421167
-9.422864858511465,0.00039900418728367994
-9.411853043017599,0.000410974751685008
-9.400841227523733,0.0004232327796737491
-9.389829412029867,0.00043578282849096725
-9.378817596536,0.0004486294584518315
-9.367805781042133,0.0004617772307848884
-9.356793965548267,0.0004752307054289519
-9.3457821500544,0.0004889944387890305
-9.334770334560535,0.0005030729814521663
-9.323758519066669,0.0005174708758642495
-9.312746703572802,0.000532192653968705
-9.301734888078936,0.0005472428348085097
-9.29072307258507,0.000562625922092372
-9.279711257091202,0.0005783464017264754
-9.268699441597336,0.0005944087393130659
-9.25768762610347,0.0006108173776170926
-9.246675810609604,0.0006275767340022595
-9.235663995115738,0.0006446911978380131
-9.224652179621872,0.0006621651278786462
-9.213640364128006,0.000680002849616332
-9.202628548634138,0.0006982086526093226
-9.191616733140272,0.0007167867877868983
-9.180604917646406,0.0007357414647330167
-9.16959310215254,0.0007550768489497134
-9.158581286658674,0.0007747970591024645
-9.147569471164807,0.0007949061642488265
-9.136557655670941,0.0008154081810525329
-9.125545840177073,0.0008363070709844333
-9.114534024683207,0.0008576067375121849
-9.103522209189341,0.0008793110232809
-9.092510393695475,0.0009014237072861846
-9.081498578201609,0.000923948502041733
-9.070486762707743,0.0009468890507435517
-9.059474947213877,0.0009702489244325207
-9.04846313172001,0.0009940316191576065
-9.037451316226143,0.00101824055314155
-9.026439500732277,0.0010428790639514893
-9.01542768523841,0.0010679504056761654
-9.004415869744545,0.0010934577461122349
-8.993404054250679,0.00111940416396189
-8.982392238756812,0.0011457926460437216
-8.971380423262946,0.0011726260845192887
-8.960368607769079,0.0011999072741377677
-8.949356792275212,0.0012276389095007612
-8.938344976781346,0.0012558235823497928
-8.92733316128748,0.001284463778878744
-8.916321345793614,0.0013135618770736997
-8.905309530299748,0.0013431201440826136
-8.894297714805882,0.001373140733617237
-8.883285899312014,0.0014036256833899483
-8.872274083818148,0.0014345769125874712
-8.861262268324282,0.001465996219384826
-8.850250452830416,0.0014978852785013696
-8.83923863733655,0.0015302456388018972
-8.828226821842684,0.0015630787209451572
-8.817215006348817,0.0015963858150827544
-8.806203190854951,0.0016301680786106427
-8.795191375361084,0.0016644265339764105
-8.784179559867217,0.001699162066544491
-8.773167744373351,0.0017343754225225272
-8.762155928879485,0.0017700672069513013
-8.75114411338562,0.0018062378817610097
-8.740132297891753,0.0018428877638969826
-8.729120482397887,0.0018800170235171289
-8.718108666904019,0.0019176256822642773
-8.707096851410153,0.001955713611616205
-8.696085035916287,0.0019942805313158895
-8.68507322042242,0.002033326007885315
-8.674061404928555,0.0020728494532251027
-8.663049589434689,0.002112850123303401
-8.652037773940823,0.0021533271169363512
-8.641025958446955,0.0021942793746633866
-8.630014142953089,0.0022357056777201046
-8.619002327459222,0.0022776046471114034
-8.607990511965356,0.0023199747427879534
-8.59697869647149,0.002362814262928824
-8.585966880977624,0.0024061213433327787
-8.574955065483758,0.0024498939569216325
-8.563943249989892,0.0024941299133578705
-8.552931434496024,0.0025388268587796625
-8.541919619002158,0.002583982275655862
-8.530907803508292,0.0026295934827639217
-8.519895988014426,0.00267565763529299
-8.50888417252056,0.0027221717250752783
-8.497872357026694,0.0027691325809480524
-8.486860541532828,0.0028165368692488722
-8.47584872603896,0.0028643810944465786
-8.464836910545094,0.002912661599910369
-8.453825095051227,0.0029613745688196243
-8.442813279557361,0.0030105160252164725
-8.431801464063495,0.0030600818352035054
-8.42078964856963,0.003110067708288796
-8.409777833075763,0.003160469198880394
-8.398766017581897,0.003211281707931939
-8.38775420208803,0.0032625004847418064
-8.376742386594163,0.0033141206289070235
-8.365730571100297,0.003366137092434199
-8.35471875560643,0.003418544682008491
-8.343706940112565,0.0034713380614224913
-8.332695124618699,0.0035245117541660756
-8.321683309124833,0.0035780601461785884
-8.310671493630965,0.0036319774887641825
-8.299659678137099,0.0036862579016715136
-8.288647862643233,0.0037408953763382164
-8.277636047149366,0.0037958837793009956
-8.2666242316555,0.00385121685577163
-8.255612416161634,0.003906888233379034
-8.244600600667768,0.003962891426077768
-8.2335887851739,0.004019219838222443
-8.222576969680034,0.004075866768808048
-8.211565154186168,0.004132825415875516
-8.200553338692302,0.004190088881081868
-8.189541523198436,0.004247650174433924
-8.17852970770457,0.004305502219184628
-8.167517892210704,0.004363637856890291
-8.156506076716838,0.004422049852627679
-8.14549426122297,0.004480730900368365
-8.134482445729104,0.00453967362850919
-8.123470630235238,0.00459887060555572
-8.112458814741371,0.0046583143459566715
-8.101446999247505,0.004717997316086385
-8.09043518375364,0.0047779119403721405
-8.079423368259773,0.004838050607563193
-8.068411552765905,0.004898405677138083
-8.05739973727204,0.004958969485846062
-8.046387921778173,0.005019734354378861
-8.035376106284307,0.005080692594168472
-8.024364290790441,0.005141836514306183
-8.013352475296575,0.005203158428577987
-8.002340659802709,0.005264650662611675
-7.991328844308842,0.0053263055611296175
-7.980317028814976,0.005388115495302233
-7.969305213321109,0.005450072870195634
-7.9582933978272425,0.005512170132307957
-7.9472815823333764,0.005574399777187456
-7.93626976683951,0.005636754357125976
-7.925257951345643,0.005699226488921074
-7.914246135851777,0.0057618088616992694
-7.903234320357911,0.005824494244793468
-7.892222504864045,0.005887275495666819
-7.881210689370178,0.005950145567875286
-7.870198873876312,0.006013097519060881
-7.859187058382446,0.006076124518967461
-7.848175242888579,0.006139219857470565
-7.837163427394713,0.006202376952612997
-7.826151611900847,0.006265589358637073
-7.815139796406981,0.006328850774004936
-7.804127980913114,0.006392155049397682
-7.793116165419248,0.006455496195684347
-7.7821043499253815,0.006518868391851215
-7.771092534431515,0.006582265992882121
-7.760080718937648,0.006645683537580319
-7.749068903443782,0.0067091157563222165
-7.738057087949916,0.006772557578733362
-7.727045272456049,0.00683600414127689
-7.716033456962183,0.006899450794744807
-7.705021641468317,0.006962893111642249
-7.694009825974451,0.007026326893454848
-7.682998010480584,0.0070897481777896796
-7.671986194986718,0.0071531532453797736
-7.660974379492852,0.007216538626942686
-7.649962563998986,0.007279901109883489
-7.638950748505119,0.007343237744832479
-7.627938933011253,0.007406545852008284
-7.6169271175173865,0.007469823027397162
-7.6059153020235195,0.007533067148738974
-7.594903486529653,0.007596276381311041
-7.583891671035787,0.0076594491835011175
-7.572879855541921,0.007722584312160418
-7.561868040048054,0.0077856808277287776
-7.550856224554188,0.00784873809912317
-7.539844409060322,0.007911755808382085
-7.528832593566456,0.007974733955057827
-7.517820778072589,0.008037672860349152
-7.506808962578723,0.008100573170967611
-7.495797147084857,0.008163435862730094
-7.48478533159099,0.008226262243871907
-7.473773516097124,0.008289053958073556
-7.462761700603258,0.008351812987195801
-7.4517498851093915,0.008414541653717727
-7.4407380696155245,0.008477242622872572
-7.429726254121658,0.008539918904476872
-7.418714438627792,0.008602573854448913
-7.407702623133926,0.008665211176012433
-7.396690807640059,0.008727834920582801
-7.385678992146193,0.008790449488332344
-7.374667176652327,0.008853059628432884
-7.36365536115846,0.008915670438973431
-7.352643545664594,0.008978287366551778
-7.341631730170728,0.009040916205538851
-7.330619914676862,0.009103563097015915
-7.319608099182995,0.0091662345273842
-7.308596283689129,0.009228937326647944
-7.297584468195263,0.00929167866637203
-7.2865726527013965,0.009354466057315387
-7.2755608372075296,0.009417307346743106
-7.2645490217136635,0.00948021071541904
-7.253537206219797,0.00954318467428297
-7.24252539072593,0.00960623806081533
-7.231513575232064,0.009669380035094023
-7.220501759738198,0.009732620075548192
-7.209489944244332,0.009795967974413641
-7.198478128750465,0.009859433832896109
-7.187466313256599,0.00992302805604832
-7.176454497762733,0.009986761347367324
-7.165442682268867,0.010050644703119616
-7.154430866775,0.010114689406401041
-7.143419051281134,0.010178907020939952
-7.132407235787268,0.010243309384651653
-7.121395420293402,0.010307908602953081
-7.110383604799535,0.010372717041846852
-7.0993717893056685,0.01043774732078422
-7.088359973811802,0.010503012305316885
-7.077348158317935,0.01056852509954768
-7.066336342824069,0.010634299038390999
-7.055324527330203,0.010700347679653513
-7.044312711836337,0.010766684795946233
-7.03330089634247,0.010833324366439532
-7.022289080848604,0.010900280568472361
-7.011277265354738,0.010967567769027575
-7.000265449860872,0.011035200516085255
-6.989253634367005,0.01110319352986601
-6.978241818873139,0.01117156169397655
-6.967230003379273,0.011240320046469625
-6.956218187885406,0.011309483770830873
-6.94520637239154,0.011379068186904755
-6.9341945568976735,0.011449088741772077
-6.923182741403807,0.011519561000591396
-6.91217092590994,0.011590500637416616
-6.901159110416074,0.011661923426003104
-6.890147294922208,0.011733845230614345
-6.879135479428342,0.011806281996841264
-6.868123663934475,0.011879249742445966
-6.857111848440609,0.011952764548241717
-6.846100032946743,0.012026842549020296
-6.835088217452876,0.012101499924538647
-6.82407640195901,0.012176752890574766
-6.813064586465144,0.012252617690064572
-6.802052770971278,0.012329110584329447
-6.791040955477411,0.012406247844404566
-6.780029139983545,0.01248404574247804
-6.7690173244896785,0.012562520543449869
-6.758005508995812,0.012641688496619473
-6.746993693501945,0.01272156582751098
-6.735981878008079,0.012802168729843145
-6.724970062514213,0.01288351335765276
-6.713958247020346,0.012965615817577658
-6.70294643152648,0.01304849216130648
-6.691934616032614,0.0131321583782011
-6.680922800538748,0.013216630388097363
-6.669910985044881,0.013301924034289127
-6.658899169551015,0.013388055076700258
-6.647887354057149,0.013475039185248398
-6.636875538563283,0.01356289193340404
-6.625863723069416,0.013651628791947711
-6.61485190757555,0.013741265122927674
-6.6038400920816835,0.013831816173819421
-6.592828276587817,0.01392329707188902
-6.5818164610939505,0.014015722818759796
-6.570804645600084,0.014109108285183329
-6.559792830106218,0.014203468206013531
-6.548781014612351,0.014298817175383284
-6.537769199118485,0.014395169642081453
-6.526757383624619,0.01449253990512852
-6.515745568130753,0.014590942109548014
-6.504733752636886,0.014690390242330351
-6.49372193714302,0.014790898128585531
-6.482710121649154,0.014892479427880601
-6.471698306155287,0.01499514763075674
-6.460686490661421,0.015098916055421387
-6.449674675167555,0.015203797844609452
-6.438662859673689,0.015309805962607911
-6.427651044179822,0.01541695319243704
-6.4166392286859555,0.015525252133182062
-6.405627413192089,0.015634715197467605
-6.394615597698223,0.01574535460906805
-6.383603782204356,0.015857182400645674
-6.37259196671049,0.015970210411609002
-6.361580151216624,0.016084450286082918
-6.350568335722757,0.016199913470982322
-6.339556520228891,0.016316611214180654
-6.328544704735025,0.01643455456276474
-6.317532889241159,0.01655375436136708
-6.306521073747292,0.016674221250566595
-6.295509258253426,0.016795965665349015
-6.28449744275956,0.016918997833618082
-6.273485627265694,0.017043327774748235
-6.262473811771827,0.017168965298170392
-6.2514619962779605,0.017295920001981623
-6.240450180784094,0.017424201271570346
-6.229438365290228,0.017553818278248284
-6.218426549796361,0.017684779977880823
-6.207414734302495,0.01781709510950799
-6.196402918808629,0.017950772193947556
-6.185391103314762,0.01808581953237319
-6.174379287820896,0.018222245204859957
-6.16336747232703,0.018360057068890337
-6.152355656833164,0.018499262757814113
-6.141343841339297,0.01863986967925569
-6.130332025845431,0.01878188501346337
-6.119320210351565,0.018925315711594712
-6.108308394857699,0.019070168493933254
-6.097296579363832,0.019216449848032266
-6.0862847638699655,0.019364166026781034
-6.075272948376099,0.01951332304639087
-6.0642611328822325,0.019663926684297287
-6.053249317388366,0.019815982476976322
-6.0422375018945,0.01996949571767314
-6.031225686400634,0.020124471454041344
-6.020213870906767,0.020280914485692823
-6.009202055412901,0.02043882936165748
-5.998190239919035,0.02059822037775385
-5.987178424425169,0.020759091573871298
-5.976166608931302,0.02092144673116577
-5.965154793437436,0.021085289369171267
-5.95414297794357,0.021250622742829878
-5.943131162449703,0.021417449839444144
-5.932119346955837,0.021585773375555336
-5.9211075314619706,0.02175559579375281
-5.9100957159681045,0.021926919259419364
-5.8990839004742375,0.022099745657418342
-5.888072084980371,0.02227407658872898
-5.877060269486505,0.02244991336703666
-5.866048453992639,0.022627257015285555
-5.855036638498772,0.02280610826220126
-5.844024823004906,0.02298646753879189
-5.83301300751104,0.02316833497483635
-5.822001192017173,0.02335171039536868
-5.810989376523307,0.02353659331716828
-5.799977561029441,0.023722982945265696
-5.788965745535575,0.02391087816947403
-5.777953930041708,0.024100277560956892
-5.766942114547842,0.024291179368842862
