Values,Density
-7.844973650065086,1.496565197878219e-7
-7.8365370369599745,1.5273231668277987e-7
-7.828100423854864,1.575601090431089e-7
-7.819663810749753,1.6418729155420753e-7
-7.811227197644642,1.7267643800944477e-7
-7.8027905845395304,1.8310570218393885e-7
-7.79435397143442,1.955692953831134e-7
-7.785917358329309,2.1017803991663087e-7
-7.777480745224198,2.2706000088468237e-7
-7.769044132119087,2.4636119702603487e-7
-7.760607519013976,2.682463909609023e-7
-7.752170905908865,2.92899960313564e-7
-7.7437342928037545,3.2052685031147554e-7
-7.735297679698643,3.513536084853719e-7
-7.726861066593532,3.85629502233642e-7
-7.718424453488421,4.2362771918158515e-7
-7.70998784038331,4.656466515984281e-7
-7.701551227278199,5.120112638590246e-7
-7.693114614173088,5.630745434498374e-7
-7.684678001067978,6.192190351445026e-7
-7.676241387962866,6.808584574746757e-7
-7.667804774857755,7.484394008161477e-7
-7.659368161752645,8.224431055914305e-7
-7.6509315486475336,9.033873191871544e-7
-7.642494935542422,9.918282292686875e-7
-7.634058322437311,1.0883624713686757e-6
-7.625621709332201,1.193629207529856e-6
-7.6171850962270895,1.3083122725743301e-6
-7.608748483121978,1.433142384377195e-6
-7.600311870016868,1.5688994128570943e-6
-7.591875256911757,1.7164147033399413e-6
-7.5834386438066455,1.8765734477871332e-6
-7.575002030701535,2.0503170978184576e-6
-7.566565417596424,2.238645811882163e-6
-7.558128804491313,2.442620929374393e-6
-7.549692191386201,2.663367461911998e-6
-7.541255578281091,2.902076593342285e-6
-7.53281896517598,3.1600081771311628e-6
-7.524382352070869,3.4384932211285746e-6
-7.515945738965758,3.7389363465312186e-6
-7.507509125860647,4.062818208982327e-6
-7.499072512755536,4.411697868185287e-6
-7.490635899650425,4.78721509083492e-6
-7.482199286545314,5.191092571799928e-6
-7.473762673440203,5.625138058019431e-6
-7.465326060335092,6.091246356792774e-6
-7.456889447229981,6.5914012117623995e-6
-7.44845283412487,7.127677027522154e-6
-7.440016221019759,7.702240423711811e-6
-7.4315796079146486,8.317351598741314e-6
-7.423142994809537,8.975365482518857e-6
-7.414706381704426,9.678732657356168e-6
-7.406269768599316,1.0430000025285838e-5
-7.3978331554942045,1.1231811200229386e-5
-7.389396542389093,1.2086906602876233e-5
-7.380959929283982,1.2998123235700466e-5
-7.372523316178872,1.3968394115974718e-5
-7.3640867030737605,1.5000747344764889e-5
-7.355650089968649,1.6098304789176517e-5
-7.347213476863539,1.7264280356809724e-5
-7.338776863758428,1.8501977840498004e-5
-7.330340250653316,1.9814788313158617e-5
-7.321903637548206,2.1206187052696425e-5
-7.313467024443095,2.2679729978042264e-5
-7.305030411337984,2.4239049578447802e-5
-7.296593798232872,2.5887850319848867e-5
-7.288157185127762,2.7629903512971406e-5
-7.279720572022651,2.9469041630094187e-5
-7.2712839589175395,3.1409152058933625e-5
-7.262847345812429,3.345417028379361e-5
-7.254410732707318,3.560807248783639e-5
-7.245974119602207,3.787486757035694e-5
-7.237537506497096,4.0258588577681866e-5
-7.229100893391985,4.276328354822084e-5
-7.220664280286874,4.5393005774710914e-5
-7.212227667181763,4.8151803490553355e-5
-7.203791054076652,5.104370899016147e-5
-7.195354440971541,5.4072727196186575e-5
-7.18691782786643,5.7242823690889684e-5
-7.1784812147613195,6.0557912231229936e-5
-7.170044601656208,6.402184177279561e-5
-7.161607988551097,6.763838302986658e-5
-7.153171375445987,7.141121460311432e-5
-7.1447347623408755,7.534390871168518e-5
-7.136298149235764,7.943991656836347e-5
-7.127861536130653,8.370255344175397e-5
-7.119424923025543,8.813498345320615e-5
-7.110988309920431,9.274020415938646e-5
-7.10255169681532,9.752103097600707e-5
-7.09411508371021,0.00010248008150122358
-7.085678470605099,0.00010761975980094502
-7.077241857499987,0.00011294224072229322
-7.068805244394877,0.00011844945430308958
-7.060368631289766,0.00012414307034984418
-7.0519320181846545,0.00013002448325829565
-7.043495405079543,0.00013609479715344635
-7.035058791974433,0.00014235481142802105
-7.026622178869322,0.0001488050067594681
-7.0181855657642105,0.00015544553168849937
-7.0097489526591,0.00016227618984072326
-7.001312339553989,0.00016929642787621817
-6.992875726448878,0.00017650532424936301
-6.984439113343766,0.00018390157886339666
-6.976002500238656,0.0001914835037009682
-6.967565887133545,0.00019924901451229878
-6.959129274028434,0.00020719562364011294
-6.950692660923323,0.0002153204340578762
-6.942256047818212,0.0002236201346954101
-6.933819434713101,0.0002320909971222987
-6.9253828216079905,0.00024072887365540752
-6.916946208502879,0.00024952919695251513
-6.908509595397768,0.0002584869811492387
-6.900072982292657,0.00026759682458975774
-6.891636369187546,0.00027685291419779837
-6.883199756082435,0.00028624903152547204
-6.874763142977324,0.00029577856051233795
-6.866326529872214,0.0003054344969787605
-6.857889916767102,0.00031520945987009545
-6.849453303661991,0.00032509570425971746
-6.841016690556881,0.0003350851361107101
-6.8325800774517695,0.00034516932878704207
-6.824143464346658,0.0003553395412957752
-6.815706851241547,0.0003655867382330192
-6.807270238136437,0.00037590161139640366
-6.7988336250313255,0.0003862746030179002
-6.790397011926214,0.0003966959305601869
-6.781960398821104,0.0004071556130121959
-6.773523785715993,0.0004176434986075013
-6.765087172610881,0.00042814929388213484
-6.756650559505771,0.00043866259397764944
-6.74821394640066,0.0004491729140881674
-6.739777333295549,0.00045966972193941386
-6.731340720190437,0.0004701424711821417
-6.722904107085327,0.0004805806355722749
-6.714467493980216,0.0004909737438055176
-6.706030880875105,0.0005013114148652992
-6.697594267769994,0.0005115833937383123
-6.689157654664883,0.0005217795873472958
-6.680721041559772,0.0005318901005442103
-6.672284428454661,0.0005419052720053667
-6.66384781534955,0.0005518157098664059
-6.655411202244439,0.0005616123269326003
-6.646974589139328,0.0005712863752998856
-6.638537976034217,0.0005808294802208229
-6.630101362929106,0.0005902336730517349
-6.621664749823995,0.0005994914231177515
-6.6132281367188845,0.0006085956683359144
-6.604791523613773,0.000617539844440752
-6.596354910508662,0.0006263179126600269
-6.587918297403552,0.0006349243856952052
-6.5794816842984405,0.0006433543518677299
-6.571045071193329,0.0006516034972983108
-6.562608458088218,0.0006596681259972131
-6.554171844983108,0.0006675451777502662
-6.545735231877996,0.0006752322436970413
-6.537298618772885,0.0006827275795076686
-6.528862005667775,0.0006900301160763997
-6.520425392562664,0.0006971394676618878
-6.511988779457552,0.0007040559374174096
-6.503552166352442,0.0007107805202659859
-6.495115553247331,0.0007173149030906302
-6.48667894014222,0.0007236614622221169
-6.478242327037108,0.0007298232582217904
-6.469805713931998,0.0007358040279704051
-6.461369100826887,0.0007416081740884567
-6.4529324877217755,0.0007472407517274803
-6.444495874616665,0.0007527074527862512
-6.436059261511554,0.0007580145876185922
-6.427622648406443,0.0007631690643137776
-6.419186035301332,0.0007681783656434699
-6.410749422196221,0.0007730505237808199
-6.40231280909111,0.0007777940929104936
-6.393876195985999,0.00078241811985829
-6.385439582880888,0.0007869321128806256
-6.377002969775777,0.0007913460087628395
-6.368566356670666,0.0007956701383849199
-6.3601297435655555,0.0007999151909201269
-6.351693130460444,0.0008040921768396186
-6.343256517355333,0.0008082123899010793
-6.334819904250223,0.0008122873683047288
-6.326383291145111,0.000816328855203545
-6.31794667804,0.0008203487587558067
-6.309510064934889,0.0008243591119113033
-6.301073451829779,0.0008283720321205553
-6.292636838724667,0.0008323996811568576
-6.284200225619556,0.000836454225237853
-6.275763612514446,0.000840547795630503
-6.267326999409335,0.0008446924499186381
-6.258890386304223,0.000848900134107336
-6.250453773199113,0.0008531826457308066
-6.242017160094002,0.0008575515981248324
-6.2335805469888905,0.0008620183860152328
-6.225143933883779,0.0008665941525647994
-6.216707320778669,0.000871289758012983
-6.208270707673558,0.0008761157500297954
-6.1998340945684465,0.000881082335896656
-6.191397481463336,0.000886199356614454
-6.182960868358225,0.0008914762630268386
-6.174524255253114,0.0008969220940364918
-6.166087642148002,0.0009025454569776964
-6.157651029042892,0.0009083545101975683
-6.149214415937781,0.0009143569478862294
-6.14077780283267,0.0009205599871825766
-6.132341189727559,0.0009269703575716728
-6.123904576622448,0.0009335942925777704
-6.115467963517337,0.0009404375237449178
-6.1070313504122264,0.0009475052768870562
-6.098594737307115,0.0009548022705787862
-6.090158124202004,0.0009623327168482472
-6.081721511096893,0.0009701003240245726
-6.073284897991782,0.000978108301683385
-6.064848284886671,0.000986359367627778
-6.05641167178156,0.0009948557568329082
-6.04797505867645,0.0010035992322789573
-6.039538445571338,0.0010125910975904082
-6.031101832466227,0.00102183221139545
-6.022665219361117,0.0010313230033171354
-6.0142286062560055,0.0010410634915038498
-6.005791993150894,0.0010510533016059274
-5.997355380045783,0.0010612916871044417
-5.988918766940673,0.0010717775508976152
-5.9804821538355615,0.0010825094680515027
-5.97204554073045,0.0010934857096229385
-5.96360892762534,0.0011047042674648434
-5.955172314520229,0.0011161628799265834
-5.946735701415117,0.0011278590583658592
-5.938299088310007,0.0011397901143915291
-5.929862475204896,0.0011519531877617513
-5.921425862099785,0.0011643452748656483
-5.912989248994673,0.0011769632577218678
-5.904552635889563,0.0011898039334320744
-5.896116022784452,0.0012028640440321994
-5.887679409679341,0.0012161403066895185
-5.87924279657423,0.0012296294441984865
-5.870806183469119,0.0012433282157323922
-5.862369570364008,0.0012572334478129325
-5.853932957258897,0.0012713420654640248
-5.845496344153786,0.001285651123518864
-5.837059731048675,0.0013001578380539523
-5.828623117943564,0.0013148596179254173
-5.820186504838453,0.0013297540963859156
-5.811749891733342,0.0013448391627612112
-5.803313278628231,0.0013601129941674325
-5.7948766655231205,0.0013755740872495037
-5.786440052418009,0.001391221289921099
-5.778003439312898,0.001407053833085311
-5.769566826207788,0.001423071362313559
-5.7611302131026765,0.0014392739694571374
-5.752693599997565,0.0014556622241631602
-5.744256986892454,0.0014722372052624402
-5.735820373787344,0.0014890005319920414
-5.727383760682232,0.0015059543950107224
-5.718947147577121,0.001523101587158661
-5.710510534472011,0.001540445533907607
-5.7020739213669,0.0015579903234408735
-5.693637308261788,0.001575740736294004
-5.685200695156678,0.0015937022744822757
-5.676764082051567,0.0016118811900307471
-5.668327468946456,0.0016302845128171686
-5.659890855841344,0.0016489200776289457
-5.651454242736234,0.0016677965503280226
-5.643017629631123,0.0016869234530104112
-5.6345810165260115,0.001706311188039363
-5.626144403420901,0.0017259710608245114
-5.61770779031579,0.0017459153012121184
-5.609271177210679,0.0017661570833476356
-5.600834564105568,0.0017867105438633029
-5.592397951000457,0.0018075907982421672
-5.583961337895346,0.0018288139552041793
-5.575524724790235,0.0018503971289576286
-5.567088111685124,0.0018723584491578014
-5.558651498580013,0.0018947170684135513
-5.550214885474902,0.0019174931671828955
-5.5417782723697915,0.0019407079559003596
-5.53334165926468,0.0019643836741812604
-5.524905046159569,0.0019885435869531833
-5.516468433054459,0.002013211977368601
-5.508031819949347,0.0020384141363608875
-5.499595206844236,0.002064176348713261
-5.491158593739125,0.0020905258755192996
-5.482721980634015,0.00211749093292552
-5.474285367528903,0.0021451006670572025
-5.465848754423792,0.002173385125042753
-5.457412141318682,0.002202375222066966
-5.448975528213571,0.0022321027043978392
-5.440538915108459,0.0022626001083499653
-5.432102302003349,0.0022939007151647492
-5.423665688898238,0.002326038501806615
-5.4152290757931265,0.002359048087694611
-5.406792462688015,0.0023929646774081617
-5.398355849582905,0.0024278239994291392
-5.389919236477794,0.0024636622410011376
-5.3814826233726825,0.002500515979211481
-5.373046010267572,0.002538422108422419
-5.364609397162461,0.002577417764200795
-5.35617278405735,0.0026175402439177105
-5.347736170952238,0.0026588269242119184
-5.339299557847128,0.0027013151755327335
-5.330862944742017,0.002745042273998806
-5.322426331636906,0.0027900453108303074
-5.313989718531795,0.002836361099632225
-5.305553105426684,0.0028840260818233966
-5.297116492321573,0.002933076230525959
-5.288679879216462,0.002983546953244074
-5.280243266111351,0.0030354729936771
-5.27180665300624,0.003088888333024245
-5.263370039901129,0.0031438260911505964
-5.254933426796018,0.0032003184279932283
-5.246496813690907,0.003258396445593885
-5.238060200585796,0.0033180900911505967
-5.229623587480686,0.0033794280614843734
-5.221186974375574,0.003442437709317559
-5.212750361270463,0.003507144951760535
-5.204313748165353,0.0035735741813994887
-5.1958771350602415,0.0036417481803726996
-5.18744052195513,0.003711688037814999
-5.179003908850019,0.0037834130710394757
-5.170567295744909,0.003856940750813335
-5.1621306826397975,0.003932286631070425
-5.153694069534686,0.00400946428338465
-5.145257456429576,0.004088485236511806
-5.136820843324465,0.004169358921283978
-5.128384230219353,0.004252092621119877
-5.119947617114243,0.004336691428388582
-5.111511004009132,0.004423158206838983
-5.103074390904021,0.004511493560279228
-5.094637777798909,0.004601695807662291
-5.086201164693799,0.004693760964703999
-5.077764551588688,0.0047876827321289145
-5.0693279384835765,0.004883452490609997
-5.060891325378466,0.004981059302434622
-5.052454712273355,0.005080489919900157
-5.044018099168244,0.005181728800409586
-5.035581486063133,0.005284758128207789
-5.027144872958022,0.005389557842668178
-5.018708259852911,0.0054961056730107975
-5.0102716467478,0.0056043771793038814
-5.001835033642689,0.005714345799574853
-4.993398420537578,0.005825982902830502
-4.984961807432467,0.00593925784776363
-4.9765251943273565,0.006054138046900255
-4.968088581222245,0.006170589035923442
-4.959651968117134,0.006288574547891557
-4.951215355012024,0.0064080565920542655
-4.9427787419069125,0.006528995536957214
-4.934342128801801,0.006651350197516465
-4.92590551569669,0.0067750779257368075
-4.91746890259158,0.006900134704743675
-4.909032289486468,0.0070264752457966685
-4.900595676381357,0.007154053087953652
-4.892159063276247,0.007282820700058385
-4.883722450171136,0.007412729584730365
-4.875285837066024,0.007543730384044694
-4.866849223960914,0.00767577298660066
-4.858412610855803,0.007808806635690849
-4.8499759977506915,0.007942780038297674
-4.84153938464558,0.00807764147466141
-4.83310277154047,0.008213338908182308
-4.824666158435359,0.008349820095438502
-4.8162295453302475,0.00848703269612331
-4.807792932225137,0.008624924382725687
-4.799356319120026,0.008763442949801227
-4.790919706014915,0.008902536422701057
-4.782483092909804,0.009042153165650175
-4.774046479804693,0.009182241989086588
-4.765609866699582,0.009322752256193684
-4.757173253594471,0.00946363398857819
-4.74873664048936,0.009604837971063908
-4.740300027384249,0.00974631585558769
-4.731863414279138,0.009888020264199049
-4.7234268011740275,0.010029904891176993
-4.714990188068916,0.010171924604287282
-4.706553574963805,0.010314035545211576
-4.698116961858695,0.010456195229182837
-4.689680348753583,0.01059836264386494
-4.681243735648472,0.010740498347511614
-4.672807122543361,0.010882564566436038
-4.664370509438251,0.011024525291814524
-4.655933896333139,0.011166346375837813
-4.647497283228028,0.01130799562720879
-4.639060670122918,0.011449442905969682
-4.6306240570178065,0.011590660217621809
-4.622187443912695,0.011731621806479669
-4.613750830807585,0.011872304248175536
-4.605314217702474,0.012012686541205152
-4.5968776045973625,0.012152750197376234
-4.588440991492251,0.012292479330991077
-4.580004378387141,0.012431860746563484
-4.57156776528203,0.012570884024838538
-4.5631311521769184,0.012709541606849978
-4.554694539071808,0.012847828875718538
-4.546257925966697,0.01298574423586149
-4.537821312861586,0.013123289189252069
-4.529384699756474,0.013260468408338735
-4.520948086651364,0.013397289805203376
-4.512511473546253,0.013533764596513443
-4.504074860441142,0.013669907363798618
-4.495638247336031,0.013805736108560937
-4.48720163423092,0.013941272301711813
-4.478765021125809,0.014076540926814585
-4.470328408020698,0.014211570516602313
-4.461891794915587,0.0143463931822356
-4.453455181810476,0.014481044634765208
-4.445018568705365,0.01461556419826859
-4.436581955600254,0.014749994814139595
-4.428145342495143,0.014884383036025642
-4.419708729390032,0.015018779014927503
-4.4112721162849216,0.015153236474001793
-4.40283550317981,0.015287812672638894
-4.394398890074699,0.015422568359424373
-4.385962276969589,0.015557567713634587
-4.3775256638644775,0.015692878274963316
-4.369089050759366,0.015828570861228405
-4.360652437654255,0.015964719473862767
-4.352215824549145,0.016101401191055246
-4.3437792114440335,0.016238696048469153
-4.335342598338922,0.01637668690753574
-4.326905985233812,0.01651545931138796
-4.318469372128701,0.01665510132857393
-4.310032759023589,0.016795703384762807
-4.301596145918479,0.016937358082732112
-4.293159532813368,0.017080160011001412
-4.284722919708257,0.01722420554155374
-4.276286306603145,0.017369592617162255
-4.267849693498035,0.017516420528913373
-4.259413080392924,0.017664789684591998
-4.2509764672878125,0.017814801368663015
-4.242539854182702,0.01796655749465248
-4.234103241077591,0.018120160350794553
-4.22566662797248,0.018275712339870222
-4.217230014867369,0.01843331571421915
-4.208793401762258,0.018593072306955526
-4.200356788657147,0.01875508326046262
-4.191920175552036,0.018919448753279618
-4.183483562446925,0.019086267726524754
-4.175046949341814,0.01925563761102469
-4.166610336236703,0.0194276540563371
-4.1581737231315925,0.019602410662864066
-4.149737110026481,0.01977999871825708
-4.14130049692137,0.019960506939310018
-4.13286388381626,0.02014402122052416
-4.1244272707111485,0.020330624390509873
-4.115990657606037,0.0205203959773628
-4.107554044500926,0.02071341198411781
-4.099117431395816,0.020909744675342398
-4.090680818290704,0.021109462375883223
-4.082244205185593,0.021312629282724673
-4.073807592080483,0.021519305290856522
-4.065370978975372,0.021729545833982122
-4.05693436587026,0.021943401740825333
-4.04849775276515,0.022160919107718027
-4.040061139660039,0.022382139188068282
-4.0316245265549275,0.02260709829922483
-4.023187913449816,0.022835827747164153
-4.014751300344706,0.02306835376933703
-4.006314687239595,0.023304697495917577
-3.997878074134484,0.023544874929603776
-3.9894414610293727,0.023788896944024883
-3.981004847924262,0.02403676930071443
-3.9725682348191507,0.02428849268451508
-3.96413162171404,0.02454406275718746
-3.955695008608929,0.024803470228904577
-3.947258395503818,0.025066700947223883
-3.938821782398707,0.025333736003044595
-3.930385169293596,0.025604551852973834
-3.921948556188485,0.025879120457448668
-3.9135119430833742,0.026157409433886038
-3.905075329978263,0.026439382224064768
-3.896638716873152,0.026724998274879324
-3.888202103768041,0.027014213231548588
-3.87976549066293,0.027306979142309486
-3.8713288775578194,0.02760324467358124
-3.862892264452708,0.027902955334545964
-3.8544556513475974,0.028206053710059256
-3.846019038242486,0.028512479700778647
-3.8375824251373754,0.028822170769378985
-3.8291458120322646,0.029135062191711587
-3.8207091989271533,0.029451087311758675
-3.8122725858220425,0.029770177799236647
-3.8038359727169313,0.030092263908708707
-3.7953993596118205,0.03041727473908338
-3.7869627465067097,0.03074513849239443
-3.7785261334015985,0.031075782730786348
-3.7700895202964877,0.031409134630659946
-3.7616529071913765,0.03174512123297277
-3.7532162940862657,0.032083669688729353
-3.744779680981155,0.03242470749874621
-3.7363430678760436,0.032768162746826535
-3.727906454770933,0.03311396432553619
-3.7194698416658216,0.03346204215383125
-3.711033228560711,0.033812327385848974
-3.7025966154556,0.03416475261023898
-3.694160002350489,0.03451925203947787
