Values,Density
-5.901813018141027,5.1644093829184e-7
-5.896477085639552,5.038136672852467e-7
-5.891141153138078,4.962806623709515e-7
-5.885805220636604,4.937608490962475e-7
-5.880469288135129,4.962100789707158e-7
-5.875133355633655,5.036206701114487e-7
-5.86979742313218,5.160210970189816e-7
-5.864461490630705,5.334758266806183e-7
-5.859125558129231,5.560852990860177e-7
-5.853789625627757,5.839860477696579e-7
-5.848453693126282,6.173509590756687e-7
-5.843117760624808,6.563896654820933e-7
-5.837781828123333,7.013490710416903e-7
-5.832445895621858,7.52514004664917e-7
-5.8271099631203835,8.102079966654241e-7
-5.82177403061891,8.747941769304823e-7
-5.816438098117435,9.466762878329593e-7
-5.81110216561596,1.0262998092480657e-6
-5.805766233114486,1.114153189901712e-6
-5.800430300613011,1.2107691806095833e-6
-5.7950943681115366,1.3167262625513043e-6
-5.789758435610063,1.4326501664996272e-6
-5.784422503108588,1.5592154752608334e-6
-5.779086570607113,1.6971473034144147e-6
-5.773750638105639,1.8472230455257588e-6
-5.768414705604164,2.0102741877248143e-6
-5.76307877310269,2.187188171298704e-6
-5.757742840601216,2.378910301747972e-6
-5.752406908099741,2.5864456922319867e-6
-5.747070975598266,2.8108612318278325e-6
-5.741735043096792,3.053287567833518e-6
-5.736399110595317,3.3149210910132787e-6
-5.731063178093843,3.5970259097545254e-6
-5.725727245592369,3.900935803111474e-6
-5.720391313090894,4.228056136618141e-6
-5.715055380589419,4.579865727752722e-6
-5.709719448087945,4.957918645959528e-6
-5.70438351558647,5.36384593089953e-6
-5.699047583084996,5.799357213199033e-6
-5.693711650583521,6.266242219823623e-6
-5.688375718082047,6.7663721469244514e-6
-5.683039785580572,7.301700880967335e-6
-5.677703853079097,7.874266049912731e-6
-5.672367920577623,8.486189884138184e-6
-5.667031988076149,9.139679867275347e-6
-5.661696055574674,9.837029156724297e-6
-5.6563601230732,1.058061675208305e-5
-5.651024190571725,1.1372907391601038e-5
-5.64568825807025,1.2216451153838036e-5
-5.640352325568776,1.311388274412642e-5
-5.635016393067302,1.4067920443272368e-5
-5.629680460565827,1.5081364698747018e-5
-5.624344528064353,1.6157096334687773e-5
-5.619008595562878,1.729807436230777e-5
-5.613672663061403,1.850733336885256e-5
-5.608336730559929,1.978798046619462e-5
-5.603000798058455,2.1143191778675782e-5
-5.59766486555698,2.257620845468305e-5
-5.592328933055506,2.409033218206836e-5
-5.586993000554031,2.5688920194286494e-5
-5.581657068052556,2.7375379750888343e-5
-5.576321135551082,2.9153162081453805e-5
-5.570985203049608,3.102575578056276e-5
-5.565649270548133,3.2996679646160945e-5
-5.560313338046658,3.506947495304433e-5
-5.554977405545184,3.724769715854337e-5
-5.549641473043709,3.953490703682491e-5
-5.544305540542235,4.193466124305725e-5
-5.538969608040761,4.445050231109346e-5
-5.533633675539286,4.7085948089990726e-5
-5.528297743037811,4.9844480629685634e-5
-5.522961810536337,5.272953452754858e-5
-5.517625878034862,5.5744484752796863e-5
-5.512289945533388,5.889263396701219e-5
-5.506954013031914,6.217719936464985e-5
-5.501618080530439,6.560129905923417e-5
-5.496282148028964,6.916793804670127e-5
-5.49094621552749,7.287999377912635e-5
-5.485610283026015,7.674020138612701e-5
-5.480274350524541,8.075113858696525e-5
-5.474938418023067,8.491521033785615e-5
-5.469602485521592,8.923463326302242e-5
-5.464266553020117,9.371141992328517e-5
-5.458930620518643,9.8347362977513e-5
-5.453594688017168,0.00010314401929680146
-5.448258755515694,0.00010810269409469199
-5.44292282301422,0.00011322442513877692
-5.437586890512745,0.00011850996711319436
-5.43225095801127,0.00012395977620224992
-5.426915025509795,0.00012957399497165803
-5.421579093008321,0.00013535243762013462
-5.416243160506847,0.0001412945756821462
-5.410907228005372,0.00014739952425912514
-5.405571295503898,0.0001536660288600361
-5.400235363002423,0.0001600924529336356
-5.394899430500948,0.00016667676617168788
-5.389563497999474,0.00017341653366606535
-5.384227565498,0.00018030890600017474
-5.378891632996525,0.00018735061035383277
-5.373555700495051,0.00019453794270036379
-5.368219767993576,0.00020186676117264074
-5.362883835492101,0.0002093324806703642
-5.357547902990627,0.0002169300687817656
-5.352211970489153,0.0002246540430846898
-5.346876037987678,0.00023249846989316716
-5.341540105486204,0.00024045696450637755
-5.336204172984729,0.00024852269301569446
-5.330868240483254,0.00025668837571864167
-5.3255323079817805,0.0002649462921819265
-5.320196375480306,0.00027328828799232444
-5.314860442978831,0.00028170578322341336
-5.309524510477357,0.0002901897826443345
-5.304188577975882,0.0002987308876839477
-5.298852645474407,0.0003073193101607828
-5.293516712972933,0.000315944887778221
-5.288180780471459,0.00032459710137800607
-5.282844847969984,0.00033326509393556
-5.277508915468509,0.0003419376912728242
-5.272172982967035,0.0003506034244560967
-5.26683705046556,0.0003592505538367666
-5.261501117964086,0.0003678670946841954
-5.256165185462612,0.00037644084435344005
-5.250829252961137,0.0003849594109186505
-5.245493320459662,0.0003934102431980245
-5.240157387958188,0.0004017806620852035
-5.234821455456713,0.00041005789309700447
-5.229485522955239,0.00041822910003681824
-5.224149590453765,0.0004262814196683458
-5.21881365795229,0.00043420199728656794
-5.213477725450815,0.0004419780230659337
-5.208141792949341,0.0004495967690616304
-5.202805860447866,0.0004570456267328771
-5.197469927946392,0.0004643121448536375
-5.192133995444918,0.0004713840676716305
-5.186798062943443,0.00047824937317383215
-5.181462130441968,0.00048489631131302946
-5.176126197940494,0.0004913134420495013
-5.170790265439019,0.000497489673058904
-5.165454332937545,0.0005034142969587638
-5.16011840043607,0.0005090770279055842
-5.154782467934596,0.0005144680374154567
-5.149446535433121,0.0005195779892637441
-5.144110602931646,0.0005243980733210078
-5.138774670430172,0.0005289200381871882
-5.133438737928698,0.0005331362224889023
-5.128102805427223,0.0005370395847104949
-5.122766872925749,0.0005406237314348541
-5.117430940424274,0.0005438829438759556
-5.112095007922799,0.0005468122025926725
-5.1067590754213255,0.0005494072102806107
-5.101423142919851,0.0005516644125461989
-5.096087210418376,0.0005535810165773133
-5.090751277916902,0.0005551550076311126
-5.085415345415427,0.0005563851632737447
-5.080079412913952,0.000557271065310002
-5.0747434804124785,0.0005578131093574232
-5.069407547911004,0.0005580125120252487
-5.064071615409529,0.0005578713156705779
-5.058735682908055,0.0005573923907153874
-5.05339975040658,0.0005565794355171204
-5.048063817905105,0.0005554369737964665
-5.0427278854036315,0.0005539703496378542
-5.037391952902157,0.0005521857200859667
-5.032056020400682,0.0005500900453738675
-5.026720087899207,0.0005476910768267909
-5.021384155397733,0.0005449973424952251
-5.016048222896258,0.0005420181305810928
-5.010712290394784,0.0005387634707272396
-5.00537635789331,0.0005352441132517177
-5.000040425391835,0.0005314715064119249
-4.99470449289036,0.0005274577717951298
-4.989368560388886,0.000523215677934237
-4.984032627887411,0.0005187586122571211
-4.978696695385937,0.0005141005514794142
-4.973360762884463,0.0005092560305585553
-4.968024830382988,0.0005042401103283051
-4.962688897881513,0.0004990683439364332
-4.957352965380039,0.0004937567422123659
-4.952017032878564,0.0004883217380904567
-4.94668110037709,0.0004827801502182358
-4.941345167875616,0.00047714914587740354
-4.936009235374141,0.0004714462033463193
-4.930673302872666,0.00046568907383097435
-4.925337370371192,0.0004598957430897027
-4.920001437869717,0.0004540843928755832
-4.914665505368243,0.00044827336231706774
-4.909329572866769,0.0004424811093537012
-4.903993640365294,0.00043672617234171915
-4.898657707863819,0.00043102713193731226
-4.893321775362344,0.00042540257336414616
-4.8879858428608705,0.00041987104916369616
-4.882649910359396,0.0004144510425239077
-4.877313977857921,0.00040916093127428554
-4.871978045356447,0.0004040189526322499
-4.866642112854972,0.00039904316877695245
-4.861306180353497,0.0003942514333224248
-4.8559702478520235,0.0003896613587558509
-4.850634315350549,0.00038529028489984324
-4.845298382849074,0.0003811552484516978
-4.8399624503476,0.0003772729536474992
-4.834626517846125,0.00037365974409188374
-4.82929058534465,0.00037033157578843234
-4.8239546528431765,0.00036730399140154357
-4.818618720341702,0.00036459209577308777
-4.813282787840227,0.0003622105327140551
-4.807946855338753,0.0003601734630843609
-4.802610922837278,0.000358494544171091
-4.797274990335803,0.00035718691037019135
-4.7919390578343295,0.00035626315517261337
-4.786603125332855,0.00035573531445246
-4.78126719283138,0.0003556148510504009
-4.775931260329906,0.00035591264064429445
-4.770595327828431,0.00035663895889334607
-4.765259395326956,0.00035780346984343875
-4.759923462825482,0.0003594152155745531
-4.754587530324008,0.00036148260707433155
-4.749251597822533,0.00036401341631461456
-4.743915665321058,0.00036701476951337894
-4.738579732819584,0.00037049314155582214
-4.733243800318109,0.0003744543515543826
-4.727907867816635,0.0003789035595219599
-4.722571935315161,0.000383845264135034
-4.717236002813686,0.00038928330156271646
-4.711900070312211,0.000395220845335862
-4.706564137810737,0.00040166040723322444
-4.701228205309262,0.00040860383916024867
-4.695892272807788,0.0004160523359957452
-4.690556340306314,0.00042400643938352717
-4.685220407804839,0.00043246604244593506
-4.679884475303364,0.0004414303953952786
-4.67454854280189,0.00045089811202164015
-4.6692126103004155,0.00046086717703383573
-4.663876677798941,0.00047133495423265503
-4.658540745297467,0.00048229819549300973
-4.653204812795992,0.0004937530505348328
-4.647868880294517,0.0005056950774597127
-4.642532947793043,0.0005181192540326326
-4.6371970152915685,0.0005310199896868331
-4.631861082790094,0.0005443911382285727
-4.626525150288619,0.0005582260112212481
-4.621189217787145,0.0005725173920245012
-4.61585328528567,0.0005872575504654136
-4.610517352784195,0.0006024382581178087
-4.6051814202827215,0.0006180508041649588
-4.599845487781247,0.0006340860118191384
-4.594509555279772,0.0006505342552729082
-4.589173622778298,0.0006673854771534274
-4.583837690276823,0.0006846292064519345
-4.578501757775348,0.0007022545768983722
-4.5731658252738745,0.0007202503457511798
-4.5678298927724,0.0007386049129698459
-4.562493960270925,0.0007573063407383882
-4.557158027769451,0.0007763423733048933
-4.551822095267976,0.0007957004571035216
-4.546486162766501,0.0008153677611231203
-4.5411502302650275,0.0008353311974851826
-4.535814297763553,0.0008555774421955351
-4.530478365262078,0.0008760929560305264
-4.525142432760604,0.0008968640055206226
-4.519806500259129,0.0009178766839921086
-4.514470567757654,0.0009391169326288258
-4.5091346352561805,0.0009605705615141828
-4.503798702754706,0.0009822232706158628
-4.498462770253231,0.0010040606706736852
-4.493126837751756,0.0010260683039544278
-4.487790905250282,0.001048231664834479
-4.482454972748807,0.001070536220175142
-4.477119040247333,0.0010929674294551867
-4.471783107745859,0.0011155107646264393
-4.466447175244384,0.0011381517296594078
-4.461111242742909,0.0011608758797483697
-4.455775310241435,0.0011836688401464426
-4.4504393777399605,0.0012065163246028849
-4.445103445238486,0.0012294041533774407
-4.439767512737012,0.0012523182708087388
-4.434431580235537,0.001275244762415212
-4.429095647734062,0.0012981698715106317
-4.423759715232588,0.0013210800153181657
-4.4184237827311135,0.0013439618005691406
-4.413087850229639,0.0013668020385763707
-4.407751917728165,0.0013895877597733914
-4.40241598522669,0.001412306227715228
-4.397080052725215,0.0014349449525365417
-4.391744120223741,0.0014574917038692897
-4.3864081877222665,0.0014799345232211734
-4.381072255220792,0.001502261735821021
-4.375736322719318,0.001524461961939779
-4.370400390217843,0.0015465241276968356
-4.365064457716368,0.0015684374753654994
-4.359728525214893,0.0015901915731934696
-4.3543925927134195,0.0016117763247552597
-4.349056660211945,0.0016331819778570983
-4.34372072771047,0.0016543991330164633
-4.338384795208996,0.0016754187515391934
-4.333048862707521,0.0016962321632204291
-4.327712930206046,0.001716831073695798
-4.3223769977045725,0.0017372075714717113
-4.317041065203098,0.0017573541346634323
-4.311705132701623,0.0017772636374721422
-4.306369200200149,0.0017969293564312483
-4.301033267698674,0.0018163449764548069
-4.295697335197199,0.001835504596719252
-4.2903614026957255,0.0018544027364104446
-4.285025470194251,0.0018730343403695199
-4.279689537692776,0.0018913947846679706
-4.274353605191302,0.0019094798821442903
-4.269017672689827,0.0019272858879322147
-4.263681740188352,0.0019448095050111289
-4.2583458076868785,0.0019620478898060914
-4.253009875185404,0.0019789986578661913
-4.247673942683929,0.0019956598896453057
-4.242338010182455,0.002012030136410603
-4.23700207768098,0.002028108426299389
-4.2316661451795055,0.0020438942705449173
-4.226330212678031,0.002059387669887374
-4.220994280176557,0.0020745891211857333
-4.215658347675082,0.0020894996242403867
-4.210322415173607,0.0021041206888368774
-4.204986482672133,0.0021184543420149707
-4.1996505501706585,0.00213250313556455
-4.194314617669184,0.00214627015374734
-4.18897868516771,0.002159759021237575
-4.183642752666235,0.0021729739112725
-4.17830682016476,0.0021859195539979774
-4.172970887663286,0.0021986012449908103
-4.1676349551618115,0.0022110248539343666
-4.162299022660337,0.002223196833419823
-4.156963090158863,0.0022351242278400157
-4.151627157657388,0.00224681468233812
-4.146291225155913,0.0022582764517679876
-4.140955292654439,0.002269518409618372
-4.1356193601529645,0.002280550056847276
-4.13028342765149,0.002291381530568074
-4.124947495150016,0.0023020236125229562
-4.119611562648541,0.002312487737274771
-4.114275630147066,0.002322786000042411
-4.108939697645592,0.002332931164100001
-4.1036037651441175,0.0023429366676553966
-4.098267832642643,0.002352816630117386
-4.092931900141168,0.0023625858576577473
-4.087595967639694,0.002372259847969231
-4.082260035138219,0.0023818547941154185
-4.076924102636744,0.002391387587365776
-4.0715881701352705,0.0024008758189053986
-4.066252237633796,0.0024103377803042676
-4.060916305132321,0.0024197924626313885
-4.055580372630847,0.0024292595540927817
-4.050244440129372,0.0024387594360748173
-4.044908507627897,0.0024483131774702196
-4.0395725751264235,0.0024579425271651772
-4.034236642624949,0.0024676699045669236
-4.028900710123474,0.0024775183880500623
-4.023564777622,0.0024875117012046165
-4.018228845120525,0.0024976741967691826
-4.0128929126190505,0.002508030838136867
-4.0075569801175766,0.0025186071783281257
-4.002221047616102,0.00252942933632605
-3.996885115114627,0.0025405239706801606
-3.9915491826131526,0.0025519182502901708
-3.9862132501116783,0.00256363982228916
-3.9808773176102035,0.0025757167769571016
-3.975541385108729,0.0025881776096036355
-3.9702054526072548,0.0026010511793727736
-3.96486952010578,0.0026143666649330564
-3.9595335876043056,0.002628153517031405
-3.9541976551028313,0.0026424414079021658
-3.9488617226013565,0.0026572601775394847
-3.943525790099882,0.002672639776857194
-3.938189857598408,0.0026886102077757247
-3.932853925096933,0.0027052014602971797
-3.9275179925954586,0.0027224434466444312
-3.922182060093984,0.0027403659325618
-3.9168461275925095,0.0027589984658944328
-3.911510195091035,0.0027783703025828256
-3.9061742625895604,0.002798510330230642
-3.900838330088086,0.0028194469894246565
-3.8955023975866117,0.0028412081930062165
-3.890166465085137,0.0028638212435159426
-3.8848305325836625,0.0028873127490527326
-3.879494600082188,0.002911708537811312
-3.8741586675807134,0.0029370335715798272
-3.868822735079239,0.0029633118585024112
-3.8634868025777642,0.002990566365428368
-3.85815087007629,0.0030188189301889306
-3.8528149375748155,0.0030480901741610188
-3.8474790050733407,0.003078399415492008
-3.8421430725718664,0.003109764583376761
-3.836807140070392,0.0031422021337905066
-3.8314712075689172,0.003175726967094703
-3.826135275067443,0.003210352347941963
-3.8207993425659685,0.003246089827917832
-3.8154634100644937,0.003282949171360419
-3.8101274775630194,0.0033209382848077076
-3.804791545061545,0.003360063150521994
-3.7994556125600703,0.0034003277645424795
-3.794119680058596,0.003441734079716218
-3.788783747557121,0.0034842819541518397
-3.7834478150556468,0.003527969105533279
-3.7781118825541724,0.0035727910717230048
-3.7727759500526976,0.0036187411780715904
-3.7674400175512233,0.003665810511833824
-3.762104085049749,0.003713987904077235
-3.756768152548274,0.0037632599194468534
-3.7514322200467998,0.003813610854127243
-3.7460962875453254,0.0038650227423186953
-3.7407603550438506,0.0039174753715157246
-3.7354244225423763,0.003970946306845136
-3.7300884900409015,0.004025410924689199
-3.724752557539427,0.004080842455783157
-3.719416625037953,0.004137212037939788
-3.714080692536478,0.004194488778513283
-3.7087447600350036,0.004252639826674299
-3.7034088275335293,0.004311630455523895
-3.6980728950320545,0.004371424154029763
-3.69273696253058,0.004431982728722661
-3.687401030029106,0.004493266415042068
-3.682065097527631,0.004555233998173102
-3.6767291650261567,0.004617842943167968
-3.6713932325246823,0.004681049534094019
-3.6660573000232075,0.004744809021903565
-3.660721367521733,0.004809075780668597
-3.6553854350202584,0.004873803471775214
-3.650049502518784,0.0049389452156250475
-3.6447135700173097,0.005004453770341465
-3.639377637515835,0.0050702817169327175
-3.6340417050143605,0.005136381650319249
-3.628705772512886,0.005202706375588749
-3.6233698400114114,0.005269209108801255
-3.618033907509937,0.005335843681627895
-3.6126979750084627,0.005402564749069607
-3.607362042506988,0.005469327999469833
-3.6020261100055135,0.00553609036600379
-3.5966901775040387,0.005602810238798963
-3.5913542450025644,0.005669447676820049
-3.58601831250109,0.005735964618628922
-3.5806823799996153,0.005802325091116068
-3.575346447498141,0.005868495415287054
-3.5700105149966666,0.005934444408180296
-3.5646745824951918,0.006000143579988595
-3.5593386499937174,0.00606556732545889
-3.554002717492243,0.0061306931086493426
-3.5486667849907683,0.006195501640134181
-3.543330852489294,0.006259977045761086
-3.5379949199878196,0.0063241070260861496
-3.5326589874863448,0.006387883005634781
-3.5273230549848704,0.006451300271167321
-3.5219871224833956,0.006514358098160193
-3.5166511899819213,0.006577059864751529
-3.511315257480447,0.00663941315244404
-3.505979324978972,0.006701429832900828
-3.500643392477498,0.006763126140223775
-3.4953074599760234,0.006824522728155787
-3.4899715274745486,0.006885644711706267
-3.4846355949730743,0.006946521692760204
-3.4792996624716,0.007007187769295563
-3.473963729970125,0.007067681527898571
-3.468627797468651,0.007128046019337456
-3.463291864967176,0.007188328717024347
-3.4579559324657017,0.0072485814582688955
-3.4526199999642273,0.007308860368300613
-3.4472840674627525,0.007369225767112556
-3.441948134961278,0.007429742059252922
-3.436612202459804,0.007490477606769939
-3.431276269958329,0.007551504585587678
-3.4259403374568547,0.007612898825668155
-3.4206044049553803,0.007674739635387635
-3.4152684724539055,0.007737109610628965
-3.409932539952431,0.00780009442916153
-3.404596607450957,0.00786378263095068
-3.399260674949482,0.007928265385104414
-3.3939247424480077,0.007993636244228431
-3.388588809946533,0.008059990887021458
-3.3832528774450585,0.00812742685000055
-3.377916944943584,0.008196043249297576
-3.3725810124421094,0.00826594049351898
-3.367245079940635,0.008337219988705138
-3.3619091474391607,0.008409983836464838
-3.356573214937686,0.008484334526398442
-3.3512372824362116,0.00856037462395081
-3.345901349934737,0.00863820645486283
-3.3405654174332624,0.008717931787409542
-3.335229484931788,0.008799651513627585
-3.3298935524303133,0.008883465330744321
-3.324557619928839,0.008969471424025259
-3.3192216874273646,0.009057766152254142
-3.3138857549258898,0.009148443737053352
-3.3085498224244154,0.00924159595724039
-3.303213889922941,0.009337311849397482
-3.2978779574214663,0.009435677415809241
