Values,Density
-8.584591507927648,1.407437960204705e-7
-8.57628194380425,1.4232168479844098e-7
-8.567972379680855,1.4549018062526287e-7
-8.559662815557457,1.502750253679075e-7
-8.551353251434062,1.567149730541395e-7
-8.543043687310664,1.648619612631963e-7
-8.534734123187269,1.747813392211084e-7
-8.526424559063871,1.8655215223983834e-7
-8.518114994940476,2.0026748187573773e-7
-8.509805430817078,2.160348420710001e-7
-8.501495866693682,2.3397662926583074e-7
-8.493186302570285,2.5423062721685596e-7
-8.48487673844689,2.769505643152037e-7
-8.476567174323492,3.023067232099663e-7
-8.468257610200094,3.3048660091905546e-7
-8.459948046076699,3.6169561856702614e-7
-8.451638481953301,3.9615787844615724e-7
-8.443328917829906,4.341169672350542e-7
-8.435019353706508,4.758368027796278e-7
-8.426709789583112,5.21602522188247e-7
-8.418400225459715,5.717214090761313e-7
-8.41009066133632,6.265238563230024e-7
-8.401781097212922,6.86364361679459e-7
-8.393471533089526,7.516225522113951e-7
-8.385161968966129,8.227042341407698e-7
-8.376852404842733,9.000424632255033e-7
-8.368542840719336,9.840986315012845e-7
-8.36023327659594,1.075363564848053e-6
-8.351923712472543,1.1743586261353522e-6
-8.343614148349145,1.281636817895837e-6
-8.33530458422575,1.3977838780321328e-6
-8.326995020102352,1.5234193617985614e-6
-8.318685455978956,1.6591977026873296e-6
-8.310375891855559,1.8058092444929365e-6
-8.302066327732163,1.963981236014975e-6
-8.293756763608766,2.1344787803515095e-6
-8.28544719948537,2.3181057286676427e-6
-8.277137635361973,2.5157055097370287e-6
-8.268828071238577,2.728161884706288e-6
-8.26051850711518,2.9563996168333615e-6
-8.252208942991784,3.2013850455366727e-6
-8.243899378868386,3.464126553180864e-6
-8.235589814744989,3.7456749137428254e-6
-8.227280250621593,4.047123511504379e-6
-8.218970686498196,4.369608417431235e-6
-8.2106611223748,4.7143083116166435e-6
-8.202351558251403,5.08244424004059e-6
-8.194041994128007,5.475279192067317e-6
-8.18573243000461,5.8941174883220715e-6
-8.177422865881214,6.340303965526113e-6
-8.169113301757816,6.815222947217242e-6
-8.16080373763442,7.3202969884538535e-6
-8.152494173511023,7.856985383843194e-6
-8.144184609387628,8.426782427513042e-6
-8.13587504526423,9.031215415837676e-6
-8.127565481140833,9.671842382601983e-6
-8.119255917017437,1.035024955902005e-5
-8.11094635289404,1.1068048550231906e-5
-8.102636788770644,1.182687322189035e-5
-8.094327224647246,1.2628376291463255e-5
-8.08601766052385,1.3474225620039443e-5
-8.077708096400453,1.4366100201880462e-5
-8.069398532277058,1.5305685850068107e-5
-8.06108896815366,1.6294670579034823e-5
-8.052779404030264,1.733473968581521e-5
-8.044469839906867,1.842757053370644e-5
-8.036160275783471,1.9574827044335915e-5
-8.027850711660074,2.077815390609197e-5
-8.019541147536678,2.2039170508437404e-5
-8.01123158341328,2.3359464614701128e-5
-8.002922019289883,2.4740585787205835e-5
-7.994612455166488,2.6184038582052326e-5
-7.986302891043091,2.7691275532101085e-5
-7.9779933269196945,2.9263689939940324e-5
-7.969683762796298,3.090260850438856e-5
-7.961374198672901,3.260928380722215e-5
-7.953064634549504,3.43848866883557e-5
-7.944755070426107,3.623049854075311e-5
-7.936445506302711,3.814710355827273e-5
-7.928135942179314,4.013558097244242e-5
-7.919826378055918,4.2196697315003686e-5
-7.911516813932521,4.43310987469235e-5
-7.903207249809125,4.653930349518597e-5
-7.894897685685728,4.8821694440527325e-5
-7.8865881215623315,5.117851190188506e-5
-7.878278557438935,5.360984666303442e-5
-7.869968993315538,5.611563329015537e-5
-7.861659429192142,5.8695643788118836e-5
-7.853349865068745,6.134948164502989e-5
-7.845040300945349,6.407657631546469e-5
-7.836730736821951,6.687617819122306e-5
-7.828421172698555,6.974735411036754e-5
-7.820111608575158,7.268898345395586e-5
-7.8118020444517615,7.569975487834628e-5
-7.803492480328365,7.877816373162662e-5
-7.795182916204968,8.192251019973913e-5
-7.786873352081572,8.513089822656571e-5
-7.778563787958175,8.840123525092388e-5
-7.770254223834779,9.173123279898783e-5
-7.761944659711382,9.51184079705323e-5
-7.753635095587986,9.856008585106381e-5
-7.745325531464589,0.00010205340288117586
-7.7370159673411925,0.00010559531120864999
-7.728706403217796,0.0001091825840456237
-7.7203968390943984,0.00011281182204814048
-7.712087274971002,0.00011647946073041482
-7.703777710847605,0.00012018177892197338
-7.695468146724209,0.00012391490826891465
-7.687158582600812,0.00012767484377648394
-7.678849018477416,0.00013145745538303355
-7.670539454354019,0.0001352585005505117
-7.6622298902306225,0.00013907363784962075
-7.653920326107226,0.00014289844151212355
-7.645610761983829,0.00014672841691590072
-7.637301197860433,0.00015055901696268406
-7.628991633737036,0.00015438565930120038
-7.62068206961364,0.00015820374434299305
-7.612372505490242,0.0001620086740108449
-7.604062941366846,0.00016579587115494922
-7.595753377243449,0.00016956079956448756
-7.587443813120053,0.0001732989844979117
-7.579134248996656,0.00017700603364883237
-7.570824684873259,0.00018067765845936057
-7.562515120749863,0.00018430969568766602
-7.554205556626466,0.00018789812913329318
-7.54589599250307,0.0001914391114170022
-7.537586428379673,0.00019492898571127782
-7.529276864256277,0.00019836430731203988
-7.52096730013288,0.00020174186494109538
-7.5126577360094835,0.00020505870166512416
-7.504348171886087,0.00020831213531746556
-7.4960386077626895,0.00021149977830573234
-7.487729043639293,0.00021461955668983495
-7.479419479515896,0.00021766972841407968
-7.4711099153925,0.0002206489005785314
-7.462800351269103,0.00022355604563610793
-7.454490787145707,0.00022639051640433285
-7.44618122302231,0.00022915205978362363
-7.4378716588989136,0.00023184082907707487
-7.429562094775517,0.00023445739481201856
-7.42125253065212,0.0002370027539670954
-7.412942966528724,0.00023947833751573715
-7.404633402405327,0.00024188601620143795
-7.396323838281931,0.00024422810446874874
-7.388014274158534,0.00024650736247959926
-7.379704710035137,0.00024872699615367984
-7.37139514591174,0.0002508906551794291
-7.363085581788344,0.00025300242895127077
-7.354776017664947,0.00025506684039798295
-7.3464664535415505,0.0002570888376770353
-7.338156889418154,0.00025907378371958865
-7.329847325294757,0.0002610274436212036
-7.321537761171361,0.0002629559698846965
-7.313228197047964,0.000264865885531069
-7.304918632924568,0.00026676406510722783
-7.296609068801171,0.0002686577136285298
-7.2882995046777745,0.00027055434350701374
-7.279989940554378,0.00027246174952584926
-7.2716803764309805,0.0002743879819331694
-7.263370812307584,0.00027634131773766196
-7.255061248184187,0.0002783302303005007
-7.246751684060791,0.000280363357328207
-7.238442119937394,0.00028244946738046196
-7.230132555813998,0.0002845974250183607
-7.221822991690601,0.00028681615472616814
-7.213513427567205,0.0002891146037497425
-7.205203863443808,0.0002915017040028985
-7.1968942993204115,0.00029398633320020895
-7.188584735197015,0.0002965772753827883
-7.180275171073618,0.00029928318100911136
-7.171965606950222,0.00030211252678914117
-7.163656042826825,0.0003050735754452209
-7.155346478703428,0.0003081743355861132
-7.147036914580031,0.0003114225218851128
-7.138727350456635,0.00031482551575473614
-7.130417786333238,0.0003183903267123633
-7.1221082222098415,0.0003221235546303721
-7.113798658086445,0.00032603135306629415
-7.105489093963048,0.000330119393864077
-7.097179529839652,0.00033439283321694485
-7.088869965716255,0.00033885627937874953
-7.080560401592859,0.0003435137622042894
-7.072250837469462,0.00034836870469674274
-7.063941273346066,0.0003534238967300724
-7.055631709222669,0.00035868147110947567
-7.0473221450992725,0.00036414288212363415
-7.039012580975875,0.0003698088867319796
-7.0307030168524784,0.00037567952852075176
-7.022393452729082,0.00038175412455089194
-7.014083888605685,0.0003880312552064268
-7.005774324482289,0.00039450875714155606
-6.997464760358892,0.0004011837194086692
-6.989155196235496,0.00040805248283716576
-6.980845632112099,0.0004151106427153525
-6.9725360679887025,0.0004223530548146644
-6.964226503865306,0.00042977384477712417
-6.955916939741909,0.0004373664208715724
-6.947607375618513,0.0004451234901064803
-6.939297811495116,0.0004530370776709529
-6.93098824737172,0.0004610985496565123
-6.922678683248322,0.00046929863899681774
-6.914369119124926,0.0004776274745431391
-6.906059555001529,0.00048607461317716103
-6.897749990878133,0.0004946290748457097
-6.889440426754736,0.0005032793803838973
-6.881130862631339,0.0005120135919786491
-6.872821298507943,0.0005208193561072954
-6.864511734384546,0.0005296839487709951
-6.85620217026115,0.0005385943228291791
-6.847892606137753,0.0005475371572260389
-6.839583042014357,0.0005564989078885403
-6.83127347789096,0.0005654658600632275
-6.8229639137675635,0.0005744241818486885
-6.814654349644166,0.0005833599786706656
-6.8063447855207695,0.0005922593484397084
-6.798035221397373,0.0006011084371228023
-6.789725657273976,0.0006098934944573781
-6.78141609315058,0.0006186009295294469
-6.773106529027183,0.0006272173659382031
-6.764796964903787,0.0006357296962656344
-6.75648740078039,0.0006441251355735486
-6.7481778366569936,0.0006523912736501819
-6.739868272533597,0.0006605161257347497
-6.7315587084102,0.0006684881814524816
-6.723249144286804,0.0006762964517012435
-6.714939580163407,0.0006839305132392303
-6.706630016040011,0.0006913805507340171
-6.698320451916613,0.0006986373960455152
-6.690010887793217,0.0007056925645286527
-6.68170132366982,0.0007125382881573465
-6.673391759546424,0.0007191675452875371
-6.665082195423027,0.0007255740868941313
-6.6567726312996305,0.0007317524591374123
-6.648463067176234,0.0007376980221319484
-6.640153503052837,0.0007434069648149071
-6.631843938929441,0.0007488763158299553
-6.623534374806044,0.0007541039503676226
-6.615224810682648,0.0007590885929242235
-6.606915246559251,0.0007638298159668153
-6.5986056824358545,0.0007683280345143423
-6.590296118312458,0.0007725844966699198
-6.5819865541890605,0.0007766012701623082
-6.573676990065664,0.0007803812249800243
-6.565367425942267,0.0007839280122031141
-6.557057861818871,0.000787246039162699
-6.548748297695474,0.000790340441078982
-6.540438733572078,0.0007932170493519133
-6.532129169448681,0.0007958823566972214
-6.523819605325285,0.0007983434793425205
-6.515510041201888,0.0008006081165145276
-6.5072004770784915,0.0008026845074670837
-6.498890912955095,0.0008045813863138181
-6.490581348831698,0.0008063079349448434
-6.482271784708302,0.000807873734317734
-6.473962220584905,0.000809288714424458
-6.465652656461508,0.0008105631032443179
-6.457343092338111,0.0008117073749999422
-6.449033528214715,0.0008127321980374521
-6.440723964091318,0.0008136483826554672
-6.4324143999679215,0.0008144668292081249
-6.424104835844525,0.0008151984768053199
-6.415795271721128,0.0008158542529306053
-6.407485707597732,0.0008164450242916276
-6.399176143474335,0.0008169815492099204
-6.390866579350939,0.0008174744318480928
-6.382557015227542,0.0008179340785608555
-6.374247451104146,0.0008183706566425023
-6.365937886980749,0.0008187940557295864
-6.357628322857352,0.0008192138521000546
-6.349318758733955,0.0008196392760919159
-6.3410091946105585,0.0008200791828454773
-6.332699630487162,0.0008205420265519175
-6.324390066363765,0.0008210358383685269
-6.316080502240369,0.0008215682081388565
-6.307770938116972,0.0008221462700308481
-6.299461373993576,0.0008227766921823654
-6.291151809870179,0.0008234656704182405
-6.2828422457467825,0.0008242189260764564
-6.274532681623386,0.0008250417079572793
-6.266223117499989,0.0008259387983812871
-6.257913553376593,0.0008269145233184168
-6.249603989253196,0.0008279727665238159
-6.241294425129799,0.000829116987592272
-6.232984861006402,0.0008303502438182636
-6.224675296883006,0.0008316752157258385
-6.216365732759609,0.0008330942361103192
-6.208056168636213,0.0008346093224120742
-6.199746604512816,0.0008362222122231305
-6.191437040389419,0.0008379344017085421
-6.183127476266023,0.0008397471867077114
-6.174817912142626,0.0008416617062645773
-6.16650834801923,0.0008436789883227705
-6.158198783895833,0.0008457999973082802
-6.149889219772437,0.0008480256833138704
-6.14157965564904,0.0008503570325890976
-6.1332700915256435,0.0008527951190342468
-6.124960527402246,0.0008553411563924694
-6.1166509632788495,0.0008579965508300471
-6.108341399155453,0.0008607629535961545
-6.100031835032056,0.0008636423134527196
-6.09172227090866,0.000866636928569768
-6.083412706785263,0.0008697494975851236
-6.075103142661867,0.0008729831695352098
-6.06679357853847,0.0008763415923715668
-6.058484014415074,0.0008798289597878495
-6.050174450291677,0.0008834500560935605
-6.04186488616828,0.0008872102988845311
-6.033555322044884,0.0008911157792731638
-6.025245757921487,0.0008951732994588078
-6.016936193798091,0.0008993904074333344
-6.008626629674693,0.0009037754286368928
-6.000317065551297,0.000908337494394524
-5.9920075014279,0.0009130865669862605
-5.983697937304504,0.0009180334612205994
-5.975388373181107,0.0009231898624028935
-5.9670788090577105,0.0009285683406092208
-5.958769244934314,0.0009341823611980142
-5.950459680810917,0.000940046291510668
-5.942150116687521,0.0009461754037333328
-5.933840552564124,0.0009525858739119781
-5.925530988440728,0.0009592947771316735
-5.917221424317331,0.0009663200788901515
-5.9089118601939346,0.0009736806227143386
-5.900602296070537,0.0009813961140850741
-5.8922927319471405,0.000989487100752597
-5.883983167823744,0.0009979749495401483
-5.875673603700347,0.0010068818197488255
-5.867364039576951,0.0010162306332883167
-5.859054475453554,0.0010260450416727236
-5.850744911330158,0.00103634939003009
-5.842435347206761,0.0010471686782844232
-5.834125783083365,0.001058528519678636
-5.825816218959968,0.0010704550968125242
-5.8175066548365715,0.0010829751153773148
-5.809197090713175,0.001096115755772727
-5.800887526589778,0.0011099046227957337
-5.792577962466382,0.0011243696935931838
-5.784268398342984,0.001139539264071249
-5.775958834219588,0.0011554418939551123
-5.767649270096191,0.001172106350691002
-5.759339705972795,0.001189561552381196
-5.751030141849398,0.0012078365099396447
-5.7427205777260015,0.0012269602686519163
-5.734411013602605,0.0012469618493191133
-5.726101449479208,0.0012678701891600218
-5.717791885355812,0.0012897140826402982
-5.709482321232415,0.0013125221223910587
-5.701172757109019,0.0013363226403723455
-5.692863192985622,0.0013611436494310207
-5.684553628862226,0.0013870127853936624
-5.676244064738829,0.0014139572498297467
-5.667934500615432,0.0014420037536108498
-5.659624936492035,0.0014711784613857218
-5.6513153723686385,0.0015015069370827136
-5.643005808245242,0.0015330140905443449
-5.634696244121845,0.0015657241253911925
-5.626386679998449,0.0015996604882056766
-5.618077115875052,0.0016348458191197805
-5.609767551751656,0.0016713019038844174
-5.601457987628259,0.0017090496274922925
-5.5931484235048625,0.0017481089294207439
-5.584838859381466,0.0017884987605554861
-5.576529295258069,0.0018302370418522519
-5.568219731134673,0.0018733406247886156
-5.559910167011276,0.001917825253654473
-5.551600602887879,0.001963705529726003
-5.543291038764482,0.0020109948773658097
-5.534981474641086,0.0020597055120880896
-5.526671910517689,0.0021098484106260944
-5.518362346394293,0.002161433283036947
-5.510052782270896,0.0022144685468769958
-5.5017432181474994,0.0022689613034794216
-5.493433654024103,0.00232491731636492
-5.485124089900706,0.00238234099181369
-5.47681452577731,0.0024412353616284394
-5.468504961653913,0.0025016020681138495
-5.460195397530517,0.0025634413512998153
-5.45188583340712,0.002626752038432923
-5.443576269283723,0.002691531535760479
-5.435266705160326,0.0027577758226293263
-5.4269571410369295,0.002825479447921622
-5.418647576913533,0.0028946355288464428
-5.410338012790136,0.0029652357521064918
-5.40202844866674,0.0030372703774546282
-5.393718884543343,0.0031107282436558703
-5.385409320419947,0.003185596776864741
-5.37709975629655,0.003261862001427821
-5.368790192173154,0.003339508553116786
-5.360480628049757,0.0034185196947948302
-5.35217106392636,0.003498877334514609
-5.343861499802964,0.003580562046044196
-5.335551935679567,0.003663553091810996
-5.32724237155617,0.003747828448251417
-5.318932807432773,0.0038333648335485563
-5.310623243309377,0.003920137737735717
-5.30231367918598,0.004008121455139504
-5.294004115062584,0.004097289119130336
-5.285694550939187,0.004187612739144514
-5.2773849868157905,0.004279063239935729
-5.269075422692394,0.004371610503010671
-5.260765858568997,0.0044652234101966275
-5.252456294445601,0.0045598698892855664
-5.244146730322204,0.004655516961693577
-5.235837166198808,0.004752130792070745
-5.227527602075411,0.004849676739791045
-5.2192180379520146,0.004948119412248528
-5.210908473828617,0.005047422719881536
-5.2025989097052205,0.005147549932842849
-5.194289345581824,0.005248463739230036
-5.185979781458427,0.005350126304787205
-5.177670217335031,0.005452499333985664
-5.169360653211634,0.005555544132388859
-5.161051089088238,0.005659221670203566
-5.152741524964841,0.005763492646917441
-5.144431960841445,0.005868317556920997
-5.136122396718048,0.005973656756009651
-5.1278128325946515,0.006079470528660036
-5.119503268471255,0.006185719155973443
-5.111193704347858,0.006292362984177855
-5.102884140224462,0.006399362493578429
-5.094574576101064,0.00650667836784572
-5.086265011977668,0.006614271563529584
-5.077955447854271,0.006722103379686389
-5.069645883730875,0.006830135527505275
-5.061336319607478,0.006938330199819907
-5.0530267554840815,0.007046650140389743
-5.044717191360685,0.007155058712835399
-5.036407627237288,0.007263519969111424
-5.028098063113892,0.007371998717398614
-5.019788498990495,0.007480460589297976
-5.011478934867099,0.007588872106207193
-5.003169370743702,0.007697200744759438
-4.994859806620306,0.007805415001203987
-4.986550242496908,0.0079134844546071
-4.978240678373512,0.00802137982875039
-4.969931114250115,0.008129073052604314
-4.9616215501267185,0.008236537319252373
-4.953311986003322,0.00834374714314198
-4.945002421879925,0.008450678415537807
-4.936692857756529,0.008557308458052339
-4.928383293633132,0.008663616074129172
-4.920073729509736,0.008769581598355114
-4.911764165386339,0.008875186943477378
-4.9034546012629425,0.008980415645003306
-4.895145037139546,0.00908525290326274
-4.886835473016149,0.009189685622813321
-4.878525908892753,0.009293702449073965
-4.870216344769355,0.009397293802072503
-4.861906780645959,0.009500451907200044
-4.853597216522562,0.009603170822866403
-4.845287652399166,0.009705446464958604
-4.836978088275769,0.009807276628008878
-4.828668524152373,0.009908661002985892
-4.820358960028976,0.010009601191630395
-4.8120493959055795,0.010110100717264927
-4.803739831782183,0.010210165032015477
-4.795430267658786,0.010309801520394027
-4.78712070353539,0.010409019499200171
-4.778811139411993,0.010507830213711834
-4.770501575288597,0.010606246830146937
-4.7621920111652,0.010704284424390103
-4.753882447041803,0.010801959966991737
-4.745572882918406,0.010899292304459535
-4.7372633187950095,0.010996302136877908
-4.728953754671613,0.011093011991902836
-4.720644190548216,0.011189446195196079
-4.71233462642482,0.011285630837375556
-4.704025062301423,0.01138159373757445
-4.695715498178027,0.011477364403715275
-4.68740593405463,0.011572973989619505
-4.679096369931234,0.011668455249087559
-4.670786805807837,0.011763842487097467
-4.66247724168444,0.011859171508282605
-4.654167677561044,0.011954479562862858
-4.645858113437646,0.012049805290213652
-4.63754854931425,0.012145188660268638
-4.629238985190853,0.01224067091296184
-4.620929421067457,0.01233629449592315
-4.61261985694406,0.012432103000649763
-4.604310292820664,0.012528141097381103
-4.596000728697267,0.012624454468911374
-4.5876911645738705,0.012721089743577147
-4.579381600450474,0.0128180944276599
-4.571072036327077,0.012915516837444789
-4.562762472203681,0.013013406031176584
-4.554452908080284,0.013111811741152323
-4.546143343956888,0.013210784306187296
-4.537833779833491,0.01331037460468605
-4.529524215710094,0.01341063398854537
-4.521214651586697,0.013511614218108519
-4.5129050874633005,0.013613367398382504
