Values,Density
-7.210471182193528,2.6748202347770533e-6
-7.203957821572225,2.668979511580294e-6
-7.197444460950924,2.6699490909692924e-6
-7.190931100329621,2.677718069790669e-6
-7.184417739708319,2.6922884345248477e-6
-7.177904379087017,2.7136750244405317e-6
-7.171391018465715,2.74190550958453e-6
-7.164877657844412,2.777020382677131e-6
-7.158364297223111,2.819072965662417e-6
-7.151850936601808,2.8681294309412797e-6
-7.1453375759805065,2.9242688358854796e-6
-7.138824215359204,2.9875831719927692e-6
-7.132310854737902,3.0581774280030727e-6
-7.1257974941166,3.136169666434485e-6
-7.119284133495297,3.2216911143995164e-6
-7.112770772873995,3.3148862674664548e-6
-7.106257412252693,3.41591300745403e-6
-7.099744051631391,3.5249427335626304e-6
-7.093230691010088,3.642160506814318e-6
-7.086717330388787,3.7677652074408208e-6
-7.080203969767484,3.901969705816244e-6
-7.073690609146182,4.045001046032448e-6
-7.06717724852488,4.197100642464036e-6
-7.060663887903578,4.3585244890176345e-6
-7.0541505272822755,4.529543381176504e-6
-7.047637166660974,4.710443150410248e-6
-7.041123806039671,4.9015249110190284e-6
-7.0346104454183696,5.103105319204104e-6
-7.028097084797067,5.3155168444202205e-6
-7.021583724175764,5.539108052510233e-6
-7.015070363554463,5.7742439008579005e-6
-7.00855700293316,6.021306045142505e-6
-7.002043642311858,6.280693157723928e-6
-6.995530281690556,6.5528212573624095e-6
-6.989016921069254,6.838124050266049e-6
-6.9825035604479515,7.137053281965587e-6
-6.97599019982665,7.450079100532539e-6
-6.969476839205347,7.777690429921179e-6
-6.9629634785840455,8.120395354091394e-6
-6.956450117962743,8.478721511567203e-6
-6.949936757341441,8.853216499890137e-6
-6.943423396720139,9.24444828992628e-6
-6.936910036098836,9.653005649801465e-6
-6.930396675477534,1.0079498578364869e-5
-6.923883314856232,1.0524558747600308e-5
-6.91736995423493,1.098883995407805e-5
-6.9108565936136275,1.1473018578859063e-5
-6.904343232992326,1.19777940556752e-5
-6.897829872371023,1.2503889347465543e-5
-6.8913165117497215,1.3052051429909752e-5
-6.884803151128419,1.3623051783091637e-5
-6.878289790507117,1.4217686889686585e-5
-6.871776429885815,1.4836778739972089e-5
-6.865263069264513,1.5481175343033844e-5
-6.85874970864321,1.615175124402386e-5
-6.852236348021909,1.6849408046903762e-5
-6.845722987400606,1.7575074942121228e-5
-6.839209626779303,1.832970923909029e-5
-6.832696266158002,1.91142969028198e-5
-6.826182905536699,1.992985309432838e-5
-6.8196695449153975,2.0777422714253826e-5
-6.813156184294095,2.1658080949304905e-5
-6.806642823672793,2.257293382072756e-5
-6.800129463051491,2.352311873483632e-5
-6.793616102430189,2.4509805034316802e-5
-6.787102741808886,2.5534194550358262e-5
-6.780589381187585,2.659752215468554e-5
-6.774076020566282,2.7701056310873266e-5
-6.76756265994498,2.8846099624476977e-5
-6.761049299323678,3.0033989391355792e-5
-6.754535938702375,3.1266098143209985e-5
-6.748022578081073,3.254383418983212e-5
-6.741509217459771,3.386864215776733e-5
-6.734995856838469,3.524200352384831e-5
-6.7284824962171665,3.666543714338395e-5
-6.721969135595865,3.814049977229374e-5
-6.715455774974562,3.966878658214889e-5
-6.7089424143532606,4.1251931667423726e-5
-6.702429053731958,4.289160854408728e-5
-6.695915693110656,4.458953063876236e-5
-6.689402332489354,4.634745176767749e-5
-6.682888971868052,4.816716660423909e-5
-6.676375611246749,5.005051113479795e-5
-6.669862250625448,5.199936310091788e-5
-6.663348890004145,5.4015642428466466e-5
-6.6568355293828425,5.6101311641042206e-5
-6.650322168761541,5.825837625813082e-5
-6.643808808140238,6.04888851763255e-5
-6.6372954475189365,6.279493103248084e-5
-6.630782086897634,6.517865054852124e-5
-6.624268726276332,6.764222485596254e-5
-6.61775536565503,7.018787979995878e-5
-6.611242005033728,7.28178862211392e-5
-6.604728644412425,7.553456021477424e-5
-6.598215283791124,7.834026336564232e-5
-6.591701923169821,8.12374029580394e-5
-6.585188562548519,8.422843215931224e-5
-6.578675201927217,8.731585017639383e-5
-6.572161841305914,9.050220238385545e-5
-6.5656484806846125,9.37900804223804e-5
-6.55913512006331,9.718212226681767e-5
-6.552621759442008,0.00010068101226206987
-6.546108398820706,0.00010428948112695298
-6.539595038199404,0.0001080103059232923
-6.533081677578101,0.00011184630999035161
-6.5265683169568,0.00011580036284314713
-6.520054956335497,0.00011987538003304515
-6.513541595714195,0.00012407432297050196
-6.507028235092893,0.00012840019870781916
-6.500514874471591,0.00013285605968154854
-6.4940015138502885,0.0001374450034130545
-6.487488153228987,0.00014217017216641616
-6.480974792607684,0.00014703475256244887
-6.474461431986382,0.00015204197514775974
-6.46794807136508,0.0001571951139179217
-6.461434710743777,0.00016249748579367715
-6.454921350122476,0.0001679524500493232
-6.448407989501173,0.00017356340769185494
-6.441894628879871,0.00017933380079054005
-6.435381268258569,0.0001852671117553743
-6.428867907637267,0.0001913668625641773
-6.422354547015964,0.0001976366139366222
-6.415841186394663,0.00020407996445511844
-6.40932782577336,0.00021070054963117854
-6.402814465152058,0.00021750204091694047
-6.396301104530756,0.00022448814466074184
-6.389787743909453,0.00023166260100591224
-6.3832743832881516,0.0002390291827329095
-6.376761022666849,0.0002465916940428952
-6.370247662045547,0.0002543539692835984
-6.363734301424245,0.00026231987161542264
-6.357220940802943,0.0002704932916186252
-6.35070758018164,0.0002788781458403465
-6.344194219560339,0.0002874783752811524
-6.337680858939036,0.0002962979438211732
-6.331167498317734,0.0003053408365847679
-6.324654137696432,0.00031461105824450233
-6.31814077707513,0.0003241126312632965
-6.3116274164538275,0.000333849594074934
-6.305114055832526,0.00034382599920351926
-6.298600695211223,0.00035404591132057704
-6.292087334589921,0.0003645134052410945
-6.285573973968619,0.00037523256385793916
-6.279060613347316,0.0003862074760149492
-6.272547252726015,0.000397442234319376
-6.266033892104712,0.00040894093289307876
-6.25952053148341,0.0004207076650643241
-6.253007170862108,0.00043274652099876444
-6.246493810240806,0.0004450615852722075
-6.2399804496195035,0.000457656934384083
-6.233467088998202,0.0004705366342134011
-6.226953728376899,0.00048370473741734827
-6.2204403677555975,0.0004971652807737375
-6.213927007134295,0.0005109222824681943
-6.207413646512992,0.0005249797393268247
-6.200900285891691,0.000539341623995793
-6.194386925270388,0.0005540118820688182
-6.187873564649086,0.0005689944291639108
-6.181360204027784,0.0005842931479504718
-6.174846843406482,0.0005999118851285467
-6.1683334827851795,0.0006158544483613262
-6.161820122163878,0.0006321246031629861
-6.155306761542575,0.0006487260697426375
-6.1487934009212735,0.0006656625198073769
-6.142280040299971,0.000682937573325073
-6.135766679678669,0.0007005547952496083
-6.129253319057367,0.0007185176922099579
-6.122739958436065,0.0007368297091657917
-6.116226597814762,0.0007554942260311285
-6.10971323719346,0.0007745145542687078
-6.103199876572158,0.0007938939334572077
-6.096686515950855,0.0008136355278335495
-6.090173155329554,0.0008337424228130261
-6.083659794708251,0.0008542176214895152
-6.077146434086949,0.0008750640411183102
-6.070633073465647,0.0008962845095849652
-6.064119712844345,0.0009178817618614877
-6.057606352223043,0.0009398584364541003
-6.051092991601741,0.0009622170718446045
-6.044579630980438,0.0009849601029284158
-6.038066270359137,0.0010080898574524235
-6.031552909737834,0.0010316085524555187
-6.025039549116531,0.0010555182907150198
-6.01852618849523,0.001079821057202321
-6.012012827873927,0.0011045187155500832
-6.005499467252625,0.0011296130045356251
-5.998986106631323,0.0011551055345826785
-5.992472746010021,0.0011809977842849404
-5.9859593853887185,0.0012072910969558124
-5.979446024767417,0.0012339866772061265
-5.972932664146114,0.0012610855875547057
-5.9664193035248125,0.0012885887450744468
-5.95990594290351,0.0013164969180777357
-5.953392582282208,0.001344810722844439
-5.946879221660906,0.001373530620396501
-5.940365861039603,0.0014026569133219011
-5.933852500418301,0.0014321897426524018
-5.927339139796999,0.0014621290847981003
-5.920825779175697,0.0014924747485424161
-5.9143124185543945,0.001523226372101262
-5.907799057933093,0.0015543834202499853
-5.90128569731179,0.00158594518152122
-5.8947723366904885,0.0016179107654776866
-5.888258976069186,0.0016502791000633926
-5.881745615447884,0.0016830489290361635
-5.875232254826582,0.0017162188094860687
-5.86871889420528,0.0017497871094421299
-5.862205533583977,0.0017837520055712288
-5.855692172962676,0.001818111480972752
-5.849178812341373,0.0018528633230718346
-5.8426654517200705,0.0018880051216150773
-5.836152091098769,0.0019235342667713578
-5.829638730477466,0.0019594479473416925
-5.8231253698561645,0.001995743149080291
-5.816612009234862,0.002032416653131027
-5.81009864861356,0.002069465034581476
-5.803585287992258,0.0021068846611376514
-5.797071927370956,0.0021446716919227282
-5.790558566749653,0.0021828220764020818
-5.784045206128352,0.0022213315534373307
-5.777531845507049,0.002260195650472604
-5.771018484885747,0.002299409682854879
-5.764505124264445,0.00233896875329123
-5.757991763643142,0.0023788677514452357
-5.75147840302184,0.0024191013536750405
-5.744965042400538,0.0024596640229147364
-5.738451681779236,0.002500550008701457
-5.731938321157934,0.0025417533473505657
-5.725424960536632,0.0025832678622796125
-5.718911599915329,0.0026250871644840426
-5.712398239294028,0.0026672046531654482
-5.705884878672725,0.002709613516514324
-5.699371518051423,0.002752306732648327
-5.692858157430121,0.0027952770707078307
-5.686344796808819,0.0028385170921091645
-5.679831436187516,0.002882019151957285
-5.673318075566215,0.0029257754006183426
-5.666804714944912,0.002969777785452845
-5.6602913543236095,0.0030140180527105445
-5.653777993702308,0.003058487749586728
-5.647264633081005,0.003103178226441187
-5.6407512724597035,0.0031480806391791776
-5.634237911838401,0.003193185951795208
-5.627724551217099,0.003238484939079243
-5.621211190595797,0.003283968189485011
-5.614697829974495,0.0033296261081605244
-5.608184469353192,0.003375448920139955
-5.601671108731891,0.0034214266736964857
-5.595157748110588,0.0034675492438552263
-5.588644387489286,0.003513806336065496
-5.582131026867984,0.0035601874900314627
-5.575617666246681,0.0036066820836997884
-5.5691043056253795,0.0036532793374033767
-5.562590945004077,0.0036999683181592052
-5.556077584382775,0.003746737944119314
-5.549564223761473,0.0037935769891731218
-5.543050863140171,0.003840474087698961
-5.536537502518868,0.003887417739462994
-5.530024141897567,0.003934396314663994
-5.523510781276264,0.003981398059120732
-5.516997420654962,0.0040284110996007105
-5.51048406003366,0.0040754234492872965
-5.503970699412358,0.004122423013382493
-5.4974573387910555,0.004169397594843202
-5.490943978169754,0.004216334900247757
-5.484430617548451,0.004263222545790118
-5.477917256927149,0.004310048063398305
-5.471403896305847,0.004356798906974488
-5.464890535684544,0.004403462458752963
-5.458377175063243,0.00445002603577328
-5.45186381444194,0.004496476896464184
-5.445350453820638,0.004542802247336085
-5.438837093199336,0.004588989249777087
-5.432323732578034,0.0046350250269501
-5.425810371956731,0.004680896670786304
-5.41929701133543,0.004726591249071478
-5.412783650714127,0.004772095812621355
-5.4062702900928254,0.0048173974025418065
-5.399756929471523,0.0048624830575694665
-5.39324356885022,0.0049073398214893975
-5.386730208228919,0.004951954750624483
-5.380216847607616,0.004996314921393469
-5.373703486986314,0.005040407437931878
-5.367190126365012,0.005084219439772939
-5.36067676574371,0.0051277381095826535
-5.354163405122407,0.0051709506809454395
-5.347650044501106,0.005213844446195122
-5.341136683879803,0.005256406764287548
-5.334623323258501,0.005298625068709071
-5.328109962637199,0.005340486875416939
-5.321596602015897,0.00538197979080704
-5.3150832413945945,0.005423091519703792
-5.308569880773293,0.005463809873367562
-5.30205652015199,0.005504122777515049
-5.295543159530688,0.005544018280347788
-5.289029798909386,0.005583484560583711
-5.282516438288083,0.005622509935487574
-5.276003077666782,0.005661082868894808
-5.269489717045479,0.005699191979224211
-5.262976356424177,0.005736826047475194
-5.256462995802875,0.005773974025203632
-5.249949635181573,0.005810625042473056
-5.2434362745602705,0.005846768415775031
-5.236922913938969,0.005882393655914916
-5.230409553317666,0.005917490475857743
-5.2238961926963645,0.00595204879852977
-5.217382832075062,0.005986058764571043
-5.210869471453759,0.006019510740034118
-5.204356110832458,0.006052395324024308
-5.197842750211155,0.0060847033562773725
-5.191329389589853,0.006116425924669286
-5.184816028968551,0.006147554372654459
-5.178302668347249,0.006178080306626964
-5.1717893077259465,0.006207995603201323
-5.165275947104645,0.006237292416407664
-5.158762586483342,0.006265963184797595
-5.1522492258620405,0.006294000638455999
-5.145735865240738,0.0063213978059145255
-5.139222504619436,0.006348148020963323
-5.132709143998134,0.0063742449293557706
-5.126195783376832,0.006399682495403243
-5.119682422755529,0.006424455008455038
-5.113169062134227,0.006448557089260273
-5.106655701512925,0.006471983696207315
-5.100142340891622,0.006494730131437185
-5.093628980270321,0.006516792046827313
-5.087115619649018,0.006538165449841874
-5.0806022590277164,0.006558846709244927
-5.074088898406414,0.00657883256067332
-5.067575537785112,0.00659812011206545
-5.06106217716381,0.006616706848942755
-5.054548816542508,0.00663459063954067
-5.048035455921205,0.0066517697397856825
-5.041522095299904,0.0066682427981156565
-5.035008734678601,0.006684008860140098
-5.028495374057298,0.006699067373137418
-5.021982013435997,0.006713418190386591
-5.015468652814694,0.006727061575330125
-5.008955292193392,0.006739998205565992
-5.00244193157209,0.006752229176665332
-4.995928570950788,0.006763756005814079
-4.9894152103294855,0.006774580635275605
-4.982901849708184,0.006784705435672219
-4.976388489086881,0.0067941332090833625
-4.9698751284655796,0.0068028671919580855
-4.963361767844277,0.006810911057839902
-4.956848407222975,0.006818268919902304
-4.950335046601673,0.006824945333292476
-4.943821685980371,0.006830945297281907
-4.937308325359068,0.006836274257222219
-4.930794964737766,0.006840938106304281
-4.924281604116464,0.0068449431871195655
-4.9177682434951615,0.006848296293021999
-4.91125488287386,0.006851004669289364
-4.904741522252557,0.00685307601408261
-4.8982281616312555,0.006854518479202799
-4.891714801009953,0.006855340670643726
-4.885201440388651,0.006855551648940167
-4.878688079767349,0.006855160929310586
-4.872174719146047,0.00685417848159371
-4.865661358524744,0.006852614729978534
-4.859147997903443,0.006850480552527197
-4.85263463728214,0.006847787280490635
-4.8461212766608375,0.006844546697416283
-4.839607916039536,0.006840771038048473
-4.833094555418233,0.0068364729870207235
-4.8265811947969315,0.006831665677340672
-4.820067834175629,0.006826362688667601
-4.813554473554327,0.006820578045382818
-4.807041112933025,0.006814326214453579
-4.800527752311723,0.00680762210309083
-4.79401439169042,0.006800481056201853
-4.787501031069119,0.006792918853638001
-4.780987670447816,0.0067849517072392125
-4.774474309826514,0.006776596257675568
-4.767960949205212,0.006767869571087649
-4.761447588583909,0.0067587891355262615
-4.7549342279626075,0.006749372857193939
-4.748420867341305,0.006739639056488481
-4.741907506720003,0.006729606463851052
-4.735394146098701,0.0067192942154203125
-4.728880785477399,0.006708721848494113
-4.722367424856096,0.006697909296801077
-4.715854064234795,0.006686876885584208
-4.709340703613492,0.0066756453264981905
-4.70282734299219,0.006664235712323302
-4.696313982370888,0.006652669511498007
-4.689800621749586,0.006640968562472677
-4.683287261128283,0.006629155067887591
-4.676773900506982,0.006617251588577393
-4.670260539885679,0.0066052810374053195
-4.6637471792643765,0.0065932666729298876
-4.657233818643075,0.006581232092907265
-4.650720458021772,0.006569201227632911
-4.6442070974004706,0.0065571983331248595
-4.637693736779168,0.006545247984153438
-4.631180376157866,0.006533375067119363
-4.624667015536564,0.0065216047727857
-4.618153654915262,0.006509962588865421
-4.611640294293959,0.00649847429247042
-4.605126933672658,0.006487165942424334
-4.598613573051355,0.006476063871444173
-4.592100212430053,0.006465194678194635
-4.585586851808751,0.00645458521921926
-4.579073491187448,0.006444262600752933
-4.5725601305661465,0.006434254170420045
-4.566046769944844,0.006424587508823047
-4.559533409323542,0.006415290421025755
-4.55302004870224,0.006406390927936101
-4.546506688080938,0.006397917257593531
-4.539993327459635,0.006389897836365314
-4.533479966838334,0.006382361280056955
-4.526966606217031,0.0063753363849420475
-4.520453245595729,0.006368852118715823
-4.513939884974427,0.0063629376113783255
-4.507426524353125,0.006357622146052058
-4.5009131637318225,0.006352935149739149
-4.494399803110521,0.006348906184023751
-4.487886442489218,0.0063455649357247075
-4.481373081867916,0.006342941207504085
-4.474859721246614,0.006341064908436694
-4.468346360625311,0.006339966044546438
-4.46183300000401,0.006339674709314713
-4.455319639382707,0.006340221074166558
-4.448806278761405,0.006341635378939878
-4.442292918140103,0.006343947922343508
-4.435779557518801,0.006347189052409545
-4.4292661968974985,0.0063513891569457765
-4.422752836276197,0.006356578653993257
-4.416239475654894,0.006362787982295304
-4.4097261150335925,0.006370047591782743
-4.40321275441229,0.006378387934081593
-4.396699393790987,0.006387839453048409
-4.390186033169686,0.006398432575338744
-4.383672672548383,0.006410197701014107
-4.377159311927081,0.006423165194193557
-4.370645951305779,0.006437365373754056
-4.364132590684477,0.006452828504086369
-4.357619230063174,0.006469584785910584
-4.351105869441873,0.006487664347157168
-4.34459250882057,0.006507097233918534
-4.338079148199268,0.0065279134014762374
-4.331565787577966,0.00655014270540873
-4.325052426956664,0.006573814892784555
-4.3185390663353616,0.006598959593446133
-4.31202570571406,0.006625606311388598
-4.305512345092757,0.006653784416238156
-4.298998984471455,0.0066835231348351355
-4.292485623850153,0.006714851542925462
-4.28597226322885,0.006747798556965263
-4.279458902607549,0.0067823929260425395
-4.272945541986246,0.006818663223920246
-4.266432181364944,0.00685663784120436
-4.259918820743642,0.006896344977641116
-4.25340546012234,0.00693781263454623
-4.2468920995010375,0.006981068607370898
-4.240378738879736,0.007026140478406407
-4.233865378258433,0.007073055609631642
-4.2273520176371315,0.007121841135705905
-4.220838657015829,0.007172523957109957
-4.214325296394526,0.007225130733437998
-4.207811935773225,0.0072796878768431085
-4.201298575151922,0.007336221545637945
-4.19478521453062,0.007394757638053664
-4.188271853909318,0.0074553217861578844
-4.181758493288016,0.007517939349934312
-4.1752451326667135,0.007582635411524853
-4.168731772045412,0.007649434769635933
-4.162218411424109,0.007718361934109751
-4.1557050508028075,0.007789441120661626
-4.149191690181505,0.00786269624578391
-4.142678329560203,0.0079381509218169
-4.136164968938901,0.008015828452187033
-4.129651608317599,0.008095751826812277
-4.123138247696296,0.008177943717674753
-4.116624887074994,0.008262426474559645
-4.110111526453692,0.008349222120960191
-4.1035981658323895,0.008438352350147532
-4.097084805211088,0.008529838521404681
-4.090571444589785,0.008623701656422704
-4.0840580839684835,0.008719962435858108
-4.077544723347181,0.008818641196049248
-4.071031362725879,0.008919757925889798
-4.064518002104577,0.009023332263857348
-4.058004641483275,0.009129383495194127
-4.051491280861972,0.009237930549237574
-4.044977920240671,0.009348991996897729
-4.038464559619368,0.009462586048278359
-4.031951198998065,0.009578730550438216
-4.025437838376764,0.009697442985289455
-4.018924477755461,0.009818740467628812
-4.012411117134159,0.009942639743297992
-4.005897756512857,0.010069157187469164
-3.999384395891555,0.010198308803050839
