Values,Density
-5.647479359939183,2.1710016082088224e-7
-5.642012192411566,2.1680268993962137e-7
-5.63654502488395,2.1898514765417154e-7
-5.631077857356333,2.2365742843866165e-7
-5.625610689828716,2.308502921044564e-7
-5.6201435223011,2.4061540820907723e-7
-5.614676354773483,2.5302550143990743e-7
-5.609209187245866,2.6817459494732354e-7
-5.60374201971825,2.861783529317652e-7
-5.598274852190633,3.071745179605845e-7
-5.592807684663016,3.3132344406938685e-7
-5.5873405171354,3.588087238159954e-7
-5.581873349607783,3.898379062339252e-7
-5.576406182080166,4.246433064070132e-7
-5.5709390145525495,4.6348290216879917e-7
-5.5654718470249325,5.066413182874818e-7
-5.5600046794973155,5.54430894389446e-7
-5.554537511969699,6.071928350948053e-7
-5.549070344442082,6.652984392008232e-7
-5.543603176914465,7.291504054429687e-7
-5.538136009386849,7.9918421128089e-7
-5.532668841859232,8.758695616284395e-7
-5.527201674331615,9.597119029480794e-7
-5.521734506803999,1.0512539994067538e-6
-5.516267339276382,1.1510775656531358e-6
-5.510800171748765,1.259804951525556e-6
-5.505333004221149,1.3781008727509203e-6
-5.499865836693532,1.5066741822777896e-6
-5.494398669165915,1.646279674666351e-6
-5.488931501638299,1.7977199174845637e-6
-5.483464334110682,1.9618471008842064e-6
-5.477997166583065,2.139564898417934e-6
-5.472529999055449,2.331830328690409e-6
-5.467062831527832,2.5396556098682306e-6
-5.461595664000215,2.7641099959350383e-6
-5.456128496472599,3.006321584231742e-6
-5.450661328944982,3.267479083294135e-6
-5.445194161417365,3.5488335284754357e-6
-5.439726993889749,3.851699933133724e-6
-5.434259826362132,4.177458862157429e-6
-5.428792658834515,4.527557914396803e-6
-5.4233254913068984,4.903513098542282e-6
-5.4178583237792814,5.306910089415999e-6
-5.4123911562516644,5.739405348011931e-6
-5.406923988724048,6.202727090015223e-6
-5.401456821196431,6.698676086784074e-6
-5.395989653668814,7.229126282733492e-6
-5.390522486141198,7.796025211186672e-6
-5.385055318613581,8.401394193427794e-6
-5.379588151085964,9.047328303210663e-6
-5.374120983558348,9.735996079244776e-6
-5.368653816030731,1.0469638970170975e-5
-5.363186648503114,1.1250570493557318e-5
-5.357719480975498,1.2081175093903293e-5
-5.352252313447881,1.2963906683098343e-5
-5.346785145920264,1.3901286847028309e-5
-5.341317978392648,1.4895902704611377e-5
-5.335850810865031,1.595040440436073e-5
-5.330383643337414,1.7067502244937213e-5
-5.324916475809798,1.8249963407466563e-5
-5.319449308282181,1.950060828918615e-5
-5.313982140754564,2.0822306426884936e-5
-5.308514973226948,2.2217972002571253e-5
-5.303047805699331,2.369055892474225e-5
-5.297580638171714,2.5243055477903835e-5
-5.2921134706440975,2.6878478538620225e-5
-5.2866463031164805,2.859986735546428e-5
-5.2811791355888635,3.0410276892278124e-5
-5.275711968061247,3.231277073865004e-5
-5.27024480053363,3.431041359058915e-5
-5.264777633006013,3.640626330856441e-5
-5.259310465478397,3.860336256253827e-5
-5.25384329795078,4.0904730074970124e-5
-5.248376130423163,4.3313351475960434e-5
-5.242908962895547,4.583216978675843e-5
-5.23744179536793,4.846407555189223e-5
-5.231974627840313,5.121189664022128e-5
-5.226507460312697,5.40783877401019e-5
-5.22104029278508,5.706621957533961e-5
-5.215573125257463,6.017796787077855e-5
-5.210105957729847,6.341610210066706e-5
-5.20463879020223,6.678297405218183e-5
-5.199171622674613,7.028080624271477e-5
-5.193704455146997,7.39116802277633e-5
-5.18823728761938,7.76775248419511e-5
-5.182770120091763,8.158010441461838e-5
-5.177302952564147,8.562100700560933e-5
-5.17183578503653,8.980163270664535e-5
-5.166368617508913,9.412318205631511e-5
-5.160901449981297,9.858664461726875e-5
-5.15543428245368,0.00010319278776575215
-5.149967114926063,0.00010794214574317597
-5.1444999473984465,0.00011283500902135
-5.1390327798708295,0.00011787141403313967
-5.1335656123432125,0.00012305113331786445
-5.128098444815596,0.00012837366613473958
-5.122631277287979,0.00013383822959248354
-5.117164109760362,0.00013944375034634598
-5.111696942232746,0.00014518885690985935
-5.106229774705129,0.0001510718726274226
-5.100762607177512,0.00015709080935548923
-5.095295439649896,0.0001632433618919014
-5.089828272122279,0.00016952690319824246
-5.084361104594662,0.0001759384804490777
-5.078893937067046,0.00018247481194886162
-5.073426769539429,0.00018913228494387823
-5.067959602011812,0.00019590695436302874
-5.062492434484196,0.00020279454251040125
-5.057025266956579,0.00020979043973373517
-5.051558099428962,0.00021688970608631924
-5.046090931901346,0.00022408707399811448
-5.040623764373729,0.0002313769519651605
-5.035156596846112,0.00023875342926508482
-5.029689429318496,0.00024621028170123543
-5.024222261790879,0.00025374097837132376
-5.018755094263262,0.00026133868945744064
-5.013287926735646,0.00026899629502399273
-5.007820759208029,0.00027670639481092336
-5.002353591680412,0.0002844613190024804
-4.9968864241527955,0.0002922531399478
-4.9914192566251785,0.00030007368480747774
-4.9859520890975615,0.0003079145490946251
-4.980484921569945,0.0003157671110754351
-4.975017754042328,0.00032362254699145124
-4.969550586514711,0.00033147184706217893
-4.964083418987095,0.0003393058322221521
-4.958616251459478,0.00034711517154655154
-4.953149083931861,0.00035489040031313167
-4.947681916404245,0.0003626219386493939
-4.942214748876628,0.00037030011070831453
-4.936747581349012,0.0003779151643169996
-4.931280413821395,0.0003854572910391022
-4.925813246293778,0.00039291664659143674
-4.920346078766162,0.00040028337155286874
-4.914878911238545,0.00040754761230542627
-4.909411743710928,0.0004146995421427475
-4.903944576183312,0.00042172938248620246
-4.898477408655695,0.00042862742414357096
-4.893010241128078,0.0004353840485489639
-4.887543073600462,0.00044198974892273313
-4.882075906072845,0.0004484351512888335
-4.876608738545228,0.0004547110352908562
-4.871141571017612,0.0004608083547469159
-4.865674403489995,0.00046671825788593274
-4.860207235962378,0.00047243210720947226
-4.8547400684347615,0.000477941498924413
-4.8492729009071445,0.00048323828189440234
-4.8438057333795275,0.000488314576058935
-4.838338565851911,0.0004931627902719313
-4.832871398324294,0.0004977756395136996
-4.827404230796677,0.0005021461614318455
-4.821937063269061,0.0005062677321700654
-4.816469895741444,0.0005101340814449764
-4.811002728213827,0.0005137393068348171
-4.805535560686211,0.0005170778872452143
-4.800068393158594,0.0005201446955204903
-4.794601225630977,0.0005229350101714526
-4.789134058103361,0.0005254445261926484
-4.783666890575744,0.0005276693649444806
-4.778199723048127,0.0005296060830803084
-4.772732555520511,0.0005312516804965714
-4.767265387992894,0.0005326036072924086
-4.761798220465277,0.0005336597697223585
-4.756331052937661,0.0005344185351314713
-4.750863885410044,0.0005348787358644457
-4.745396717882427,0.0005350396721402967
-4.739929550354811,0.0005349011138906096
-4.734462382827194,0.0005344633015579858
-4.728995215299577,0.0005337269458569336
-4.723528047771961,0.000532693226499098
-4.718060880244344,0.0005313637898900153
-4.712593712716727,0.0005297407458050678
-4.7071265451891104,0.0005278266630555674
-4.7016593776614934,0.0005256245641584428
-4.696192210133876,0.0005231379190259716
-4.69072504260626,0.0005203706376936505
-4.685257875078643,0.0005173270621076642
-4.679790707551026,0.0005140119569966746
-4.67432354002341,0.0005104304998528424
-4.668856372495793,0.0005065882700537559
-4.663389204968176,0.0005024912371548278
-4.65792203744056,0.0004981457483895328
-4.652454869912943,0.000493558515413094
-4.646987702385326,0.0004887366003308302
-4.64152053485771,0.0004836874010540112
-4.636053367330093,0.0004784186360293867
-4.630586199802476,0.0004729383283901493
-4.62511903227486,0.0004672547895796554
-4.619651864747243,0.00046137660250201995
-4.614184697219626,0.0004553126042546648
-4.60871752969201,0.000449071868501948
-4.603250362164393,0.0004426636875508108
-4.597783194636776,0.00043609755419006264
-4.59231602710916,0.00042938314335962905
-4.586848859581543,0.00042253029371488917
-4.581381692053926,0.0004155489891551909
-4.5759145245263095,0.0004084493403856901
-4.5704473569986925,0.00040124156658295773
-4.5649801894710755,0.00039393597723639054
-4.559513021943459,0.0003865429542370107
-4.554045854415842,0.0003790729342869779
-4.548578686888225,0.0003715363917014278
-4.543111519360609,0.0003639438216754623
-4.537644351832992,0.00035630572408826104
-4.532177184305375,0.00034863258791426044
-4.526710016777759,0.0003409348763118193
-4.521242849250142,0.0003332230124567584
-4.515775681722525,0.00032550736618665657
-4.510308514194909,0.0003177982415195693
-4.504841346667292,0.00031010586510847767
-4.499374179139675,0.0003024403756886392
-4.493907011612059,0.00029481181457272077
-4.488439844084442,0.0002872301172442502
-4.482972676556825,0.00027970510609613697
-4.477505509029209,0.0002722464843563487
-4.472038341501592,0.00026486383123832183
-4.466571173973975,0.00025756659834836985
-4.461104006446359,0.0002503641073774779
-4.455636838918742,0.00024326554909903653
-4.450169671391125,0.00023627998368767889
-4.444702503863509,0.0002294163423699671
-4.439235336335892,0.00022268343040924427
-4.433768168808275,0.00021608993142223365
-4.4283010012806585,0.0002096444130180973
-4.4228338337530415,0.00020335533374260138
-4.4173666662254245,0.0001972310513056871
-4.411899498697808,0.0001912798320614457
-4.406432331170191,0.0001855098617036294
-4.400965163642574,0.00017992925713405244
-4.395497996114958,0.00017454607945167813
-4.390030828587341,0.00016936834800571413
-4.384563661059724,0.00016440405544832296
-4.379096493532108,0.00015966118371602694
-4.373629326004491,0.00015514772086163905
-4.368162158476874,0.00015087167865389904
-4.362694990949258,0.0001468411108539302
-4.357227823421641,0.00014306413207348934
-4.351760655894024,0.00013954893711215673
-4.346293488366408,0.0001363038206682165
-4.340826320838791,0.00013333719730960428
-4.335359153311174,0.00013065762158965752
-4.329891985783558,0.000128273808185639
-4.324424818255941,0.00012619465193563703
-4.318957650728324,0.00012442924764567362
-4.313490483200708,0.0001229869095346163
-4.308023315673091,0.00012187719018445786
-4.302556148145474,0.00012110989885825291
-4.297088980617858,0.00012069511904979138
-4.291621813090241,0.00012064322512472456
-4.286154645562624,0.00012096489791642642
-4.2806874780350075,0.00012167113913571712
-4.2752203105073905,0.00012277328445808
-4.2697531429797735,0.00012428301515125285
-4.264285975452157,0.00012621236810926584
-4.25881880792454,0.00012857374416073465
-4.253351640396923,0.00013137991452435993
-4.247884472869307,0.00013464402528653606
-4.24241730534169,0.0001383795997826401
-4.236950137814073,0.00014260053876822458
-4.231482970286457,0.00014732111827261626
-4.22601580275884,0.00015255598503523477
-4.220548635231223,0.00015832014943053282
-4.215081467703607,0.0001646289757993389
-4.20961430017599,0.00017149817010938043
-4.204147132648373,0.00017894376488127907
-4.198679965120757,0.0001869821013240089
-4.19321279759314,0.0001956298086366521
-4.187745630065523,0.000204903780444443
-4.182278462537907,0.00021482114834910798
-4.17681129501029,0.00022539925258785074
-4.171344127482673,0.00023665560980647453
-4.165876959955057,0.00024860787796878337
-4.16040979242744,0.0002612738184373019
-4.154942624899823,0.00027467125527498267
-4.149475457372207,0.00028881803183463143
-4.14400828984459,0.0003037319647156421
-4.138541122316973,0.0003194307951858064
-4.1330739547893565,0.0003359321381807809
-4.1276067872617395,0.00035325342900907576
-4.1221396197341225,0.00037141186790832213
-4.116672452206506,0.00039042436261212804
-4.111205284678889,0.000410307469104839
-4.105738117151272,0.00043107733075548765
-4.100270949623656,0.00045274961603720325
-4.094803782096039,0.0004753394550546696
-4.089336614568422,0.0004988613751146882
-4.083869447040806,0.0005233292355884754
-4.078402279513189,0.0005487561623288568
-4.072935111985572,0.0005751544819147911
-4.067467944457956,0.0006025356560087009
-4.062000776930339,0.0006309102161213666
-4.056533609402722,0.000660287699086905
-4.051066441875106,0.0006906765835601666
-4.045599274347489,0.0007220842278526799
-4.040132106819872,0.0007545168094295514
-4.034664939292256,0.0007879792663930373
-4.029197771764639,0.0008224752412799578
-4.023730604237022,0.0008580070274997013
-4.018263436709406,0.0008945755187397767
-4.012796269181789,0.0009321801616608643
-4.007329101654172,0.0009708189121996401
-4.0018619341265556,0.0010104881957891578
-3.9963947665989386,0.0010511828718009365
-3.990927599071322,0.001092896202498638
-3.985460431543705,0.0011356198267838923
-3.9799932640160884,0.0011793437389995163
-3.974526096488472,0.0012240562730391306
-3.969058928960855,0.001269744091995598
-3.9635917614332383,0.0013163921835597741
-3.9581245939056218,0.0013639838613616687
-3.9526574263780048,0.0014125007724220878
-3.947190258850388,0.0014619229108597427
-3.9417230913227717,0.0015122286379716972
-3.9362559237951547,0.0015633947087814503
-3.930788756267538,0.0016153963051165178
-3.9253215887399215,0.0016682070752523249
-3.9198544212123045,0.0017217991801271714
-3.914387253684688,0.0017761433461030464
-3.9089200861570714,0.001831208924216175
-3.9034529186294544,0.001886963955829074
-3.897985751101838,0.001943375244564386
-3.8925185835742213,0.0020004084343690142
-3.8870514160466048,0.0020580280935251884
-3.8815842485189878,0.0021161978043941583
-3.876117080991371,0.0021748802586465947
-3.8706499134637546,0.002234037357704354
-3.8651827459361376,0.002293630318089403
-3.859715578408521,0.0023536197813463413
-3.8542484108809045,0.002413965928179087
-3.8487812433532875,0.002474628596417414
-3.843314075825671,0.0025355674024037413
-3.8378469082980544,0.002596741865370371
-3.8323797407704374,0.002658111534356428
-3.826912573242821,0.0027196361171961878
-3.8214454057152043,0.002781275611095202
-3.8159782381875873,0.002842990434297021
-3.8105110706599707,0.0029047415583327613
-3.805043903132354,0.00296649064033795
-3.799576735604737,0.00302820015491524
-3.7941095680771206,0.0030898335250187864
-3.788642400549504,0.0031513552513362884
-3.783175233021887,0.0032127310396479316
-3.7777080654942705,0.0032739279256457318
-3.772240897966654,0.0033349143967072174
-3.766773730439037,0.0033956605101260074
-3.7613065629114204,0.0034561380073184905
-3.755839395383804,0.0035163204235400952
-3.750372227856187,0.0035761831926645797
-3.7449050603285703,0.0036357037466019943
-3.7394378928009537,0.00369486160895351
-3.7339707252733367,0.0037536384825284297
-3.72850355774572,0.003812018330376761
-3.7230363902181036,0.0038699874500204333
-3.7175692226904866,0.003927534540597884
-3.71210205516287,0.003984650762671237
-3.7066348876352535,0.00404132979047793
-3.7011677201076365,0.004097567856446579
-3.69570055258002,0.004153363787831289
-3.6902333850524034,0.004208719035358032
-3.6847662175247864,0.004263637693812251
-3.67929904999717,0.004318126514536911
-3.6738318824695533,0.004372194909845476
-3.6683647149419363,0.004425854949394517
-3.6628975474143197,0.0044791213485953565
-3.657430379886703,0.0045320114491821314
-3.651963212359086,0.004584545192086583
-3.6464960448314696,0.004636745082807496
-3.641028877303853,0.004688636149491149
-3.635561709776236,0.0047402458939729
-3.6300945422486195,0.0047916042360588015
-3.624627374721003,0.004842743451351979
-3.619160207193386,0.00489369810295506
-3.6136930396657694,0.004944504967401312
-3.608225872138153,0.004995202955189504
-3.602758704610536,0.0050458330263119435
-3.5972915370829193,0.005096438101184249
-3.5918243695553027,0.00514706296739423
-3.5863572020276857,0.0051977541827002635
-3.580890034500069,0.00524855997471344
-3.5754228669724526,0.005299530137704614
-3.5699556994448356,0.0053507159269767166
-3.564488531917219,0.0054021699512434036
-3.5590213643896025,0.005453946063449127
-3.5535541968619855,0.00550609925046092
-3.548087029334369,0.005558685522051369
-3.5426198618067524,0.005611761799582574
-3.5371526942791354,0.005665385804785149
-3.531685526751519,0.005719615949011601
-3.5262183592239023,0.0057745112233260985
-3.5207511916962853,0.0058301310897697495
-3.5152840241686687,0.005886535374124051
-3.509816856641052,0.005943784160467735
-3.504349689113435,0.006001937687800669
-3.4988825215858186,0.00606105624898356
-3.493415354058202,0.006121200092214302
-3.487948186530585,0.00618242932523799
-3.4824810190029685,0.006244803822458821
-3.477013851475352,0.00630838313509601
-3.471546683947735,0.0063732264044986525
-3.4660795164201184,0.006439392278708123
-3.460612348892502,0.006506938832330156
-3.455145181364885,0.006575923489753629
-3.4496780138372682,0.006646402951728189
-3.4442108463096517,0.0067184331252899895
-3.4387436787820347,0.006792069057001485
-3.433276511254418,0.006867364869451832
-3.4278093437268016,0.006944373700943642
-3.4223421761991846,0.007023147648275978
-3.416875008671568,0.0071037377125151326
-3.4114078411439515,0.00718619374763391
-3.4059406736163345,0.007270564411884813
-3.400473506088718,0.007356897121765269
-3.3950063385611013,0.007445238008423099
-3.3895391710334843,0.00753563187634608
-3.384072003505868,0.00762812216417354
-3.3786048359782512,0.007722750907469076
-3.3731376684506342,0.007819558703290663
-3.3676705009230177,0.007918584676398641
-3.362203333395401,0.008019866446946234
-3.356736165867784,0.008123440099501469
-3.3512689983401676,0.008229340153259402
-3.345801830812551,0.008337599533311191
-3.340334663284934,0.008448249542849024
-3.3348674957573174,0.008561319836196419
-3.329400328229701,0.00867683839256879
-3.323933160702084,0.008794831490483001
-3.3184659931744673,0.00891532368275015
-3.3129988256468508,0.009038337772003292
-3.3075316581192338,0.009163894786728412
-3.302064490591617,0.009292013957783833
-3.2965973230640007,0.00942271269541389
-3.2911301555363837,0.009556006566777988
-3.285662988008767,0.009691909274036268
-3.2801958204811505,0.009830432633051316
-3.2747286529535335,0.009971586552782078
-3.269261485425917,0.010115379015465926
-3.2637943178983004,0.010261816057698579
-3.2583271503706834,0.010410901752541663
-3.252859982843067,0.010562638192800835
-3.2473928153154503,0.0107170254756326
-3.2419256477878333,0.010874061688652056
-3.2364584802602168,0.011033742897727327
-3.2309913127326,0.011196063136655606
-3.225524145204983,0.01136101439892853
-3.2200569776773666,0.011528586631802284
-3.21458981014975,0.011698767732895828
-3.209122642622133,0.011871543549547118
-3.2036554750945165,0.012046897881161632
-3.1981883075669,0.0122248124847919
-3.1927211400392834,0.012405267084187047
-3.1872539725116664,0.012588239382553889
-3.18178680498405,0.012773705079268697
-3.1763196374564333,0.012961637890776206
-3.1708524699288163,0.013152009575909531
-3.1653853024011998,0.013344789965858413
-3.159918134873583,0.013539946999005927
-3.154450967345966,0.013737446760845947
-3.1489837998183496,0.01393725352918425
-3.143516632290733,0.014139329824812585
-3.138049464763116,0.01434363646783565
-3.1325822972354995,0.01455013263981312
-3.127115129707883,0.014758775951866112
-3.121647962180266,0.01496952251887862
-3.1161807946526494,0.015182327039907318
-3.110713627125033,0.015397142884892058
-3.105246459597416,0.015613922187739864
-3.0997792920697993,0.015832615945831255
-3.0943121245421827,0.016053174125975418
-3.0888449570145657,0.016275545776814053
-3.083377789486949,0.01649967914764944
-3.0779106219593326,0.01672552181364298
-3.0724434544317156,0.016953020807302356
-3.066976286904099,0.01718212275614617
-3.0615091193764825,0.01741277402640245
-3.0560419518488655,0.0176449208725673
-3.050574784321249,0.017878509592613674
-3.0451076167936324,0.01811348668861067
-3.0396404492660154,0.018349799032474017
-3.034173281738399,0.018587394036536024
-3.0287061142107823,0.018826219828585962
-3.0232389466831653,0.019066225430993868
-3.0177717791555487,0.01930736094349537
-3.012304611627932,0.019549577729175694
-3.006837444100315,0.019792828603154927
-3.0013702765726986,0.020037068023437514
-2.995903109045082,0.020282252283353796
-2.990435941517465,0.020528339704981767
-2.9849687739898485,0.020775290832904927
