Values,Density
-5.853762964230288,2.122998154774347e-7
-5.848107287833736,2.1257795118634348e-7
-5.842451611437184,2.1543746403507313e-7
-5.836795935040632,2.2089452461626635e-7
-5.83114025864408,2.2898827639616925e-7
-5.825484582247527,2.3978090096798965e-7
-5.819828905850975,2.5335779696433747e-7
-5.814173229454423,2.698278706025903e-7
-5.808517553057871,2.893239362811162e-7
-5.802861876661319,3.12003225394486e-7
-5.797206200264767,3.3804799970393873e-7
-5.791550523868215,3.6766626854145557e-7
-5.7858948474716625,4.0109260579512807e-7
-5.7802391710751095,4.385890650382418e-7
-5.7745834946785575,4.804461883056721e-7
-5.768927818282005,5.269841064636793e-7
-5.763272141885453,5.785537264824114e-7
-5.757616465488901,6.35538001669822e-7
-5.751960789092349,6.983532808146897e-7
-5.746305112695797,7.674507304933353e-7
-5.740649436299245,8.433178264599661e-7
-5.734993759902692,9.264799060715312e-7
-5.72933808350614,1.0175017775559958e-6
-5.723682407109588,1.1169893774920503e-6
-5.718026730713036,1.2255914689229819e-6
-5.712371054316484,1.3440013724441702e-6
-5.706715377919932,1.4729587206607775e-6
-5.70105970152338,1.613251225662804e-6
-5.695404025126828,1.765716450358168e-6
-5.689748348730275,1.93124357036889e-6
-5.684092672333723,2.110775116082042e-6
-5.6784369959371706,2.3053086807556245e-6
-5.6727813195406185,2.515898580702277e-6
-5.667125643144066,2.743657454209493e-6
-5.661469966747514,2.9897577822617528e-6
-5.655814290350962,3.2554333151263697e-6
-5.65015861395441,3.5419803882667973e-6
-5.644502937557857,3.850759109444695e-6
-5.638847261161305,4.183194397921206e-6
-5.633191584764753,4.540776857060377e-6
-5.627535908368201,4.925063460885118e-6
-5.621880231971649,5.3376780328958946e-6
-5.616224555575097,5.780311497383486e-6
-5.610568879178545,6.254721881368617e-6
-5.604913202781993,6.762734046196982e-6
-5.59925752638544,7.306239126588757e-6
-5.593601849988888,7.887193655039962e-6
-5.587946173592336,8.507618351108102e-6
-5.582290497195784,9.169596553055604e-6
-5.576634820799232,9.87527227102892e-6
-5.5709791444026795,1.0626847841593986e-5
-5.565323468006127,1.1426581163631036e-5
-5.559667791609575,1.2276782496816992e-5
-5.554012115213023,1.3179810804848382e-5
-5.54835643881647,1.4138069626622846e-5
-5.542700762419918,1.515400246169217e-5
-5.537045086023366,1.6230087654669004e-5
-5.531389409626814,1.736883276914165e-5
-5.525733733230262,1.857276844097872e-5
-5.52007805683371,1.9844441704174737e-5
-5.514422380437158,2.1186408785344628e-5
-5.508766704040606,2.260122736471139e-5
-5.503111027644053,2.4091448305314702e-5
-5.497455351247501,2.5659606855429114e-5
-5.491799674850949,2.7308213330903483e-5
-5.486143998454397,2.9039743290161426e-5
-5.480488322057845,3.085662721587267e-5
-5.474832645661293,3.276123972234058e-5
-5.4691769692647405,3.4755888311842516e-5
-5.463521292868188,3.68428017061234e-5
-5.4578656164716355,3.9024117784126986e-5
-5.452209940075083,4.130187116052012e-5
-5.446554263678531,4.367798044519074e-5
-5.440898587281979,4.615423522562594e-5
-5.435242910885427,4.873228282108481e-5
-5.429587234488875,5.141361485817646e-5
-5.423931558092323,5.41995537254212e-5
-5.418275881695771,5.709123896459854e-5
-5.412620205299218,6.008961366153146e-5
-5.406964528902666,6.319541090411157e-5
-5.401308852506114,6.64091403760076e-5
-5.395653176109562,6.973107515778967e-5
-5.38999749971301,7.316123881239019e-5
-5.384341823316458,7.669939283031163e-5
-5.378686146919906,8.034502451496894e-5
-5.373030470523354,8.409733538748134e-5
-5.367374794126801,8.795523019351099e-5
-5.361719117730249,9.191730659369982e-5
-5.3560634413336965,9.598184561907441e-5
-5.350407764937144,0.00010014680297426852
-5.344752088540592,0.00010440980126698979
-5.33909641214404,0.00010876812324469264
-5.333440735747488,0.00011321870611246331
-5.327785059350936,0.00011775813700795536
-5.322129382954383,0.00012238264970179354
-5.316473706557831,0.00012708812259082424
-5.310818030161279,0.00013187007804432542
-5.305162353764727,0.0001367236831618674
-5.299506677368175,0.0001416437519904481
-5.293851000971623,0.00014662474924743724
-5.288195324575071,0.0001516607955854587
-5.282539648178519,0.0001567456744300988
-5.276883971781966,0.00016187284041204418
-5.271228295385414,0.0001670354294081083
-5.265572618988862,0.00017222627019651765
-5.25991694259231,0.00017743789772346058
-5.2542612661957575,0.00018266256796769208
-5.248605589799205,0.0001878922743815941
-5.242949913402653,0.00019311876587734282
-5.237294237006101,0.0001983335663175176
-5.231638560609549,0.00020352799545786328
-5.225982884212996,0.0002086931912844087
-5.220327207816444,0.0002138201336728809
-5.214671531419892,0.0002188996692928419
-5.20901585502334,0.0002239225376681462
-5.203360178626788,0.0002288793982971667
-5.197704502230236,0.0002337608587278067
-5.192048825833684,0.0002385575034746009
-5.186393149437132,0.00024325992365823465
-5.180737473040579,0.0002478587472409807
-5.175081796644027,0.00025234466972520926
-5.169426120247475,0.0002567084851775143
-5.163770443850923,0.00026094111743701865
-5.158114767454371,0.0002650336513607759
-5.1524590910578185,0.0002689773639593133
-5.1468034146612665,0.00027276375527071194
-5.141147738264714,0.0002763845788226653
-5.135492061868161,0.00027983187153185485
-5.129836385471609,0.0002830979828893458
-5.124180709075057,0.0002861756032847742
-5.118525032678505,0.0002890577913240329
-5.112869356281953,0.0002917379999991445
-5.107213679885401,0.00029421010157364754
-5.101558003488849,0.0002964684110539988
-5.095902327092297,0.0002985077081223333
-5.090246650695744,0.0003003232574148029
-5.084590974299192,0.0003019108270376743
-5.07893529790264,0.0003032667052232244
-5.073279621506088,0.00030438771503486653
-5.067623945109536,0.00030527122704600805
-5.061968268712984,0.00030591516992282746
-5.056312592316432,0.0003063180388571743
-5.0506569159198795,0.00030647890180535414
-5.045001239523327,0.0003063974035007267
-5.0393455631267745,0.0003060737672232754
-5.033689886730222,0.00030550879431754025
-5.02803421033367,0.00030470386146741186
-5.022378533937118,0.00030366091574648914
-5.016722857540566,0.00030238246747633967
-5.011067181144014,0.0003008715809361569
-5.005411504747462,0.00029913186298156317
-4.999755828350909,0.00029716744964050564
-4.994100151954357,0.00029498299076455645
-4.988444475557805,0.0002925836328282604
-4.982788799161253,0.0002899749999748772
-4.977133122764701,0.0002871631734198037
-4.971477446368149,0.00028415466932955576
-4.965821769971597,0.00028095641530363486
-4.960166093575045,0.0002775757255923649
-4.954510417178493,0.0002740202751908762
-4.94885474078194,0.0002702980729544953
-4.943199064385388,0.00026641743388528503
-4.9375433879888355,0.00026238695074205093
-4.9318877115922835,0.0002582154651293335
-4.926232035195731,0.0002539120382223075
-4.920576358799179,0.0002494859212842145
-4.914920682402627,0.00024494652613319887
-4.909265006006075,0.00024030339571252165
-4.903609329609522,0.00023556617491786577
-4.89795365321297,0.00023074458182959726
-4.892297976816418,0.00022584837949488415
-4.886642300419866,0.0002208873483996272
-4.880986624023314,0.00021587125976311626
-4.875330947626762,0.0002108098497835588
-4.86967527123021,0.00020571279495227592
-4.864019594833658,0.0002005896885503215
-4.858363918437105,0.00019545001842935852
-4.852708242040553,0.00019030314617086421
-4.847052565644001,0.0001851582877094725
-4.841396889247449,0.00018002449549448679
-4.8357412128508965,0.00017491064225458102
-4.8300855364543445,0.00016982540642037454
-4.824429860057792,0.00016477725924870157
-4.81877418366124,0.00015977445368269136
-4.813118507264687,0.0001548250149692263
-4.807462830868135,0.00014993673304787136
-4.801807154471583,0.00014511715671194263
-4.796151478075031,0.00014037358953385495
-4.790495801678479,0.0001357130875361736
-4.784840125281927,0.00013114245858050462
-4.779184448885375,0.00012666826343574276
-4.773528772488823,0.00012229681847981868
-4.76787309609227,0.00011803419997878997
-4.762217419695718,0.00011388624987898003
-4.756561743299166,0.0001098585830420027
-4.750906066902614,0.00010595659584162163
-4.745250390506062,0.00010218547603837221
-4.73959471410951,9.855021383868741e-5
-4.7339390377129575,9.505561404134222e-5
-4.7282833613164055,9.170630916802798e-5
-4.7226276849198525,8.850677347044516e-5
-4.7169720085233005,8.546133770296477e-5
-4.711316332126748,8.257420454521559e-5
-4.705660655730196,7.984946455751041e-5
-4.700004979333644,7.7291112549484e-5
-4.694349302937092,7.490306424002158e-5
-4.68869362654054,7.268917308600551e-5
-4.683037950143988,7.06532471580262e-5
-4.677382273747435,6.879906593928987e-5
-4.671726597350883,6.713039692613399e-5
-4.666070920954331,6.565101190947244e-5
-4.660415244557779,6.436470281843314e-5
-4.654759568161227,6.327529700933033e-5
-4.649103891764675,6.238667188617538e-5
-4.643448215368123,6.170276874289168e-5
-4.637792538971571,6.122760572053977e-5
-4.6321368625750186,6.096528977682326e-5
-4.626481186178466,6.092002757205131e-5
-4.6208255097819135,6.109613517779784e-5
-4.6151698333853615,6.14980465237459e-5
-4.609514156988809,6.213032050154683e-5
-4.603858480592257,6.29976466529833e-5
-4.598202804195705,6.410484937498673e-5
-4.592547127799153,6.54568905847832e-5
-4.586891451402601,6.705887079084573e-5
-4.581235775006048,6.891602853004164e-5
-4.575580098609496,7.103373813404854e-5
-4.569924422212944,7.341750580071565e-5
-4.564268745816392,7.607296395355755e-5
-4.55861306941984,7.900586388279e-5
-4.552957393023288,8.222206667031929e-5
-4.547301716626736,8.572753241110898e-5
-4.541646040230184,8.952830775497923e-5
-4.535990363833631,9.363051180036937e-5
-4.530334687437079,9.804032038471982e-5
-4.524679011040527,0.00010276394882526322
-4.5190233346439745,0.00010780763317461486
-4.5133676582474225,0.00011317761006662689
-4.50771198185087,0.00011888009523770816
-4.502056305454318,0.00012492126082014159
-4.496400629057766,0.00013130721151329407
-4.490744952661213,0.0001380439597484088
-4.485089276264661,0.00014513739997385725
-4.479433599868109,0.00015259328219477896
-4.473777923471557,0.0001604171849120177
-4.468122247075005,0.000168614487612019
-4.462466570678453,0.00017719034296822655
-4.456810894281901,0.0001861496489214778
-4.451155217885349,0.00019549702081181689
-4.445499541488796,0.00020523676374356072
-4.439843865092244,0.00021537284536527704
-4.434188188695692,0.00022590886925428263
-4.42853251229914,0.00023684804909637584
-4.422876835902588,0.00024819318385327273
-4.4172211595060356,0.0002599466341113212
-4.4115654831094835,0.0002721102998054798
-4.405909806712931,0.00028468559950824905
-4.4002541303163785,0.0002976734514745455
-4.394598453919826,0.000311074256624612
-4.388942777523274,0.00032488788364558893
-4.383287101126722,0.00033911365638308617
-4.37763142473017,0.0003537503436873287
-4.371975748333618,0.000368796151867842
-4.366320071937066,0.00038424871990100004
-4.360664395540514,0.0004001051175224466
-4.355008719143962,0.00041636184632212465
-4.349353042747409,0.0004330148439463475
-4.343697366350857,0.00045005949149517664
-4.338041689954305,0.0004674906241865713
-4.332386013557753,0.0004853025453407581
-4.326730337161201,0.000503489043720273
-4.321074660764649,0.0005220434142407484
-4.315418984368097,0.0005409584820482685
-4.3097633079715445,0.000560226629937189
-4.3041076315749915,0.0005798398290616642
-4.2984519551784395,0.0005997896728728369
-4.292796278781887,0.0006200674141914476
-4.287140602385335,0.0006406640053030429
-4.281484925988783,0.0006615701409428464
-4.275829249592231,0.0006827763040151205
-4.270173573195679,0.0007042728138696507
-4.264517896799127,0.0007260498769406239
-4.258862220402574,0.0007480976395293958
-4.253206544006022,0.0007704062424983522
-4.24755086760947,0.0007929658776211694
-4.241895191212918,0.0008157668453217621
-4.236239514816366,0.0008387996135169016
-4.230583838419814,0.0008620548772643069
-4.224928162023262,0.0008855236189073395
-4.21927248562671,0.000909197168395152
-4.213616809230157,0.0009330672634503094
-4.207961132833605,0.0009571261092486101
-4.2023054564370526,0.0009813664372716907
-4.1966497800405005,0.0010057815629909163
-4.190994103643948,0.0010303654420401622
-4.185338427247396,0.001055112724537601
-4.179682750850844,0.0010800188072208135
-4.174027074454292,0.0011050798830657966
-4.168371398057739,0.0011302929880682637
-4.162715721661187,0.0011556560448782141
-4.157060045264635,0.001181167902989378
-4.151404368868083,0.001206828375201517
-4.145748692471531,0.0012326382700900212
-4.140093016074979,0.0012585994202356735
-4.134437339678427,0.0012847147059886588
-4.128781663281875,0.0013109880745617183
-4.123125986885322,0.0013374245542730747
-4.11747031048877,0.0013640302637825622
-4.111814634092218,0.0013908124161926983
-4.106158957695666,0.0014177793179119187
-4.100503281299114,0.0014449403622069272
-4.0948476049025615,0.0014723060173992943
-4.089191928506009,0.0014998878096901987
-4.083536252109457,0.001527698300629229
-4.077880575712904,0.0015557510592701723
-4.072224899316352,0.0015840606290886553
-4.0665692229198,0.0016126424897656855
-4.060913546523248,0.0016415130139700385
-4.055257870126696,0.0016706894193013761
-4.049602193730144,0.0017001897155840395
-4.043946517333592,0.0017300326477280477
-4.03829084093704,0.0017602376344006713
-4.032635164540488,0.001790824702775392
-4.026979488143935,0.0018218144196490724
-4.021323811747383,0.0018532278192408315
-4.015668135350831,0.001885086328003905
-4.010012458954279,0.0019174116868036013
-4.004356782557727,0.0019502258708275527
-3.9987011061611746,0.0019835510076123145
-3.993045429764622,0.0020174092935811745
-3.98738975336807,0.002051822909498947
-3.981734076971518,0.0020868139352592345
-3.976078400574966,0.002122404264425115
-3.9704227241784134,0.0021586155189485144
-3.9647670477818613,0.0021954689644959327
-3.959111371385309,0.0022329854268091165
-3.953455694988757,0.0022711852095247537
-3.9478000185922046,0.0023100880138754018
-3.9421443421956526,0.0023497128606855136
-3.9364886657991005,0.002390078015069238
-3.9308329894025484,0.00243120091422506
-3.925177313005996,0.002473098098710197
-3.919521636609444,0.0025157851475629206
-3.913865960212892,0.0025592766176248463
-3.9082102838163397,0.002603585987396219
-3.902554607419787,0.002648725605738672
-3.896898931023235,0.002694706645715755
-3.891243254626683,0.002741539063842156
-3.885587578230131,0.0027892315649830418
-3.8799319018335785,0.0028377915731239607
-3.8742762254370264,0.0028872252081991873
-3.8686205490404744,0.0029375372691432377
-3.8629648726439223,0.002988731223295165
-3.85730919624737,0.0030408092022598237
-3.8516535198508177,0.003093772004294823
-3.8459978434542657,0.003147619103261723
-3.8403421670577136,0.0032023486641478438
-3.834686490661161,0.00325795756512934
-3.829030814264609,0.0033144414261161337
-3.823375137868057,0.0033717946436822273
-3.817719461471505,0.0034300104322536073
-3.8120637850749524,0.00348908087139163
-3.8064081086784003,0.003548996958975585
-3.8007524322818482,0.0036097486700565383
-3.795096755885296,0.003671325021121556
-3.7894410794887436,0.00373371413947636
-3.7837854030921916,0.0037969033374228283
-3.7781297266956395,0.0038608791908801847
-3.7724740502990874,0.003925627622068734
-3.7668183739025354,0.003991133985849304
-3.761162697505983,0.0040573831592865435
-3.755507021109431,0.004124359633981365
-3.7498513447128787,0.004192047610695341
-3.7441956683163267,0.004260431095772978
-3.738539991919774,0.00432949399884964
-3.732884315523222,0.0043992202313199395
-3.72722863912667,0.00446959380502872
-3.721572962730118,0.004540598930640631
-3.7159172863335654,0.004612220115135873
-3.7102616099370134,0.004684442257879895
-3.7046059335404613,0.004757250744713478
-3.6989502571439092,0.004830631539515625
-3.6932945807473567,0.0049045712726968815
-3.6876389043508047,0.004979057326094078
-3.6819832279542526,0.005054077913749528
-3.6763275515577005,0.005129622158076528
-3.670671875161148,0.005205680160934167
-3.665016198764596,0.005282243069158619
-3.659360522368044,0.005359303134126282
-3.653704845971492,0.005436853764954794
-3.6480491695749393,0.005514889574982832
-3.6423934931783872,0.005593406421206465
-3.636737816781835,0.005672401436389392
-3.631082140385283,0.005751873053608355
-3.6254264639887306,0.0058318210230380585
-3.6197707875921785,0.005912246420828899
-3.6141151111956265,0.005993151649978818
-3.6084594347990744,0.006074540433151352
-3.602803758402522,0.006156417797443311
-3.59714808200597,0.006238790051159252
-3.5914924056094177,0.0063216647527023755
-3.5858367292128657,0.006405050671745149
-3.580181052816313,0.006488957742895435
-3.574525376419761,0.006573397012129006
-3.568869700023209,0.006658380576308328
-3.563214023626657,0.006743921516159188
-3.5575583472301044,0.0068300338231260666
-3.5519026708335524,0.0069167323205725825
-3.5462469944370003,0.0070040325798375064
-3.5405913180404482,0.007091950831700033
-3.5349356416438957,0.0071805038738422524
-3.5292799652473437,0.007269708974935872
-3.5236242888507916,0.007359583776006205
-3.5179686124542395,0.0074501461897571964
-3.512312936057687,0.007541414298559822
-3.506657259661135,0.007633406251825787
-3.501001583264583,0.007726140163500277
-3.495345906868031,0.00781963401041493
-3.4896902304714783,0.007913905532244738
-3.4840345540749262,0.008008972133810015
-3.478378877678374,0.008104850790456388
-3.472723201281822,0.008201557957231367
-3.46706752488527,0.008299109482559245
-3.4614118484887175,0.008397520527090023
-3.4557561720921655,0.008496805488370684
-3.4501004956956134,0.008596977931952573
-3.4444448192990613,0.008698050529508932
-3.438789142902509,0.008800035004495096
-3.4331334665059567,0.008902942085834965
-3.4274777901094047,0.009006781470065976
-3.4218221137128526,0.009111561792319924
-3.4161664373163,0.009217290606458227
-3.410510760919748,0.009323974374618817
-3.404855084523196,0.00943161846636761
-3.399199408126644,0.009540227167582179
-3.3935437317300914,0.009649803699127539
-3.3878880553335393,0.009760350245314284
-3.3822323789369872,0.009871867992061899
-3.376576702540435,0.009984357174618418
-3.3709210261438827,0.010097817134620926
-3.3652653497473306,0.010212246386210141
-3.3596096733507785,0.010327642690848961
-3.3539539969542265,0.01044400314042672
-3.348298320557674,0.01056132424816943
-3.342642644161122,0.01067960204681698
-3.33698696776457,0.010798832193469717
-3.3313312913680178,0.010919010080455337
-3.3256756149714652,0.011040130951516739
-3.320019938574913,0.011162190022577345
-3.314364262178361,0.011285182606300148
-3.308708585781809,0.011409104239621673
-3.3030529093852565,0.011533950813412472
-3.2973972329887045,0.011659718703392021
-3.2917415565921524,0.011786404901405834
-3.2860858801956003,0.011914007146162793
-3.280430203799048,0.01204252405252121
-3.2747745274024957,0.012171955238413516
-3.2691188510059437,0.012302301448504697
-3.2634631746093916,0.012433564673690023
-3.257807498212839,0.012565748265556904
-3.252151821816287,0.012698857044958173
-3.246496145419735,0.012832897403873
-3.240840469023183,0.012967877399767156
-3.2351847926266304,0.013103806841704266
-3.2295291162300783,0.013240697367504167
-3.2238734398335263,0.013378562511294864
-3.218217763436974,0.01351741776085825
-3.2125620870404217,0.013657280604229643
-3.2069064106438696,0.01379817056507045
-3.2012507342473175,0.01394010922640082
-3.1955950578507655,0.014083120242345702
-3.189939381454213,0.014227229337619095
-3.184283705057661,0.014372464294541747
-3.178628028661109,0.01451885492746327
-3.1729723522645568,0.014666433044531189
-3.1673166758680047,0.014815232396827728
-3.161660999471452,0.014965288614965653
-3.1560053230749,0.015116639133312414
-3.150349646678348,0.015269323102081395
-3.144693970281796,0.01542338128760272
-3.1390382938852435,0.015578855961153767
-3.1333826174886914,0.015735790776797712
-3.1277269410921393,0.015894230638740355
-3.1220712646955873,0.016054221558778108
-3.1164155882990348,0.016215810504465283
-3.1107599119024827,0.016379045238682728
-3.1051042355059306,0.01654397415133741
-3.0994485591093786,0.01671064608396749
-3.093792882712826,0.01687911014806593
-3.088137206316274,0.017049415537969834
