Values,Density
-5.644152978470636,2.477675070666763e-7
-5.6387627736664685,2.4297342413048817e-7
-5.633372568862301,2.408000191744808e-7
-5.627982364058133,2.412146107300117e-7
-5.6225921592539665,2.4420500605026874e-7
-5.617201954449799,2.497792642441876e-7
-5.611811749645631,2.579655526968594e-7
-5.606421544841464,2.6881209180817933e-7
-5.601031340037296,2.823871888546492e-7
-5.595641135233128,2.987793583097975e-7
-5.590250930428962,3.1809752540357117e-7
-5.584860725624794,3.4047131264314245e-7
-5.579470520820626,3.660514057701736e-7
-5.574080316016459,3.9500999840513806e-7
-5.568690111212291,4.2754131118760696e-7
-5.563299906408123,4.6386218482963315e-7
-5.557909701603956,5.042127435572752e-7
-5.552519496799789,5.488571261924591e-7
-5.547129291995621,5.980842831265765e-7
-5.541739087191454,6.522088341065491e-7
-5.536348882387286,7.115719863337588e-7
-5.5309586775831185,7.765425071304399e-7
-5.525568472778951,8.475177485089969e-7
-5.520178267974783,9.249247197307131e-7
-5.5147880631706165,1.009221203857047e-6
-5.509397858366449,1.1008969125481105e-6
-5.504007653562281,1.2004746765270635e-6
-5.498617448758114,1.3085116643551942e-6
-5.493227243953946,1.425600625076795e-6
-5.487837039149778,1.5523711493214964e-6
-5.482446834345612,1.68949094170312e-6
-5.477056629541444,1.8376670982978016e-6
-5.471666424737276,1.9976473828186864e-6
-5.466276219933109,2.170221492856948e-6
-5.460886015128941,2.3562223098079482e-6
-5.4554958103247735,2.55652712325056e-6
-5.450105605520606,2.7720588217073315e-6
-5.444715400716439,3.0037870407432447e-6
-5.4393251959122715,3.2527292595069777e-6
-5.433934991108104,3.5199518345979067e-6
-5.428544786303936,3.806570963429826e-6
-5.423154581499769,4.113753565138708e-6
-5.417764376695601,4.442718068707694e-6
-5.412374171891434,4.794735097781279e-6
-5.406983967087267,5.171128041207189e-6
-5.401593762283099,5.573273497632672e-6
-5.396203557478931,6.002601583062622e-6
-5.390813352674764,6.460596089881681e-6
-5.385423147870596,6.9487944858749855e-6
-5.380032943066428,7.4687877425441045e-6
-5.374642738262262,8.022219980399889e-6
-5.369252533458094,8.610787920957795e-6
-5.363862328653926,9.23624013455767e-6
-5.358472123849759,9.900376073991688e-6
-5.353081919045591,1.0605044883457205e-5
-5.3476917142414235,1.1352143973431873e-5
-5.342301509437256,1.214361735406256e-5
-5.336911304633089,1.2981453716887645e-5
-5.3315210998289215,1.3867684260210973e-5
-5.326130895024754,1.480438024983443e-5
-5.320740690220586,1.5793650311402983e-5
-5.315350485416419,1.6837637449775814e-5
-5.309960280612251,1.7938515792365202e-5
-5.304570075808084,1.9098487055512403e-5
-5.299179871003917,2.031977673363789e-5
-5.293789666199749,2.1604630012698415e-5
-5.288399461395581,2.295530741067576e-5
-5.283009256591414,2.4374080150725216e-5
-5.277619051787246,2.586322527232043e-5
-5.2722288469830785,2.7425020490009187e-5
-5.266838642178912,2.906173880917219e-5
-5.261448437374744,3.077564291137629e-5
-5.2560582325705765,3.256897932305165e-5
-5.250668027766409,3.4443972385224094e-5
-5.245277822962241,3.640281803938693e-5
-5.239887618158074,3.8447677454100026e-5
-5.234497413353907,4.0580670510188084e-5
-5.229107208549739,4.280386917259902e-5
-5.223717003745572,4.5119290772066946e-5
-5.218326798941404,4.7528891227502845e-5
-5.212936594137236,5.003455823675241e-5
-5.207546389333069,5.263810446876744e-5
-5.202156184528901,5.534126079063148e-5
-5.196765979724734,5.814566956313151e-5
-5.191375774920567,6.105287804286414e-5
-5.185985570116399,6.406433192673454e-5
-5.180595365312231,6.718136907786184e-5
-5.175205160508064,7.040521347316162e-5
-5.169814955703896,7.373696941104333e-5
-5.1644247508997285,7.717761602056962e-5
-5.159034546095562,8.072800211270104e-5
-5.153644341291394,8.438884141352275e-5
-5.1482541364872265,8.816070822018865e-5
-5.142863931683059,9.204403351881912e-5
-5.137473726878891,9.603910160336637e-5
-5.132083522074724,0.00010014604723252937
-5.126693317270557,0.0001043648533611231
-5.121303112466389,0.00010869534948007575
-5.115912907662222,0.00011313721059695928
-5.110522702858054,0.00011768995688801916
-5.105132498053886,0.00012235295404727266
-5.099742293249719,0.00012712541435798246
-5.094352088445551,0.00013200639850882842
-5.088961883641384,0.00013699481816855773
-5.083571678837217,0.00014208943933783497
-5.078181474033049,0.00014728888648458645
-5.0727912692288815,0.00015259164747021686
-5.067401064424714,0.0001579960792673094
-5.062010859620546,0.00016350041446652405
-5.0566206548163795,0.00016910276856373432
-5.051230450012212,0.00017480114801491763
-5.045840245208044,0.0001805934590418377
-5.040450040403877,0.0001864775171645898
-5.035059835599709,0.0001924510574347082
-5.029669630795541,0.0001985117453346544
-5.024279425991374,0.0002046571883071817
-5.018889221187207,0.00021088494787170164
-5.013499016383039,0.00021719255227996281
-5.008108811578872,0.00022357750965939518
-5.002718606774704,0.00023003732158785356
-4.997328401970536,0.00023656949703894923
-4.991938197166369,0.00024317156663329598
-4.986547992362201,0.00024984109712807733
-4.981157787558034,0.0002565757060732359
-4.975767582753867,0.0002633730765594526
-4.970377377949699,0.00027023097198155925
-4.9649871731455315,0.00027714725073837054
-4.959596968341364,0.0002841198807882815
-4.954206763537196,0.00029114695397791483
-4.9488165587330295,0.00029822670006284836
-4.943426353928862,0.00030535750033688826
-4.938036149124694,0.00031253790078761886
-4.932645944320527,0.0003197666246970545
-4.927255739516359,0.0003270425846074081
-4.921865534712191,0.0003343648935752539
-4.916475329908024,0.000341732875636663
-4.911085125103857,0.0003491460754127384
-4.905694920299689,0.0003566042667876475
-4.900304715495522,0.0003641074605922395
-4.894914510691354,0.00037165591123681976
-4.8895243058871865,0.0003792501222354512
-4.884134101083019,0.00038689085057565763
-4.878743896278852,0.0003945791098879251
-4.8733536914746844,0.000402316172380244
-4.867963486670517,0.00041010356950685724
-4.862573281866349,0.00041794309134892803
-4.8571830770621816,0.00042583678469088797
-4.851792872258014,0.0004337869497841535
-4.846402667453846,0.00044179613579892803
-4.8410124626496795,0.00044986713496983485
-4.835622257845512,0.0004580029754510047
-4.830232053041344,0.00046620691290336313
-4.824841848237177,0.0004744824208447309
-4.819451643433009,0.00048283317979994674
-4.814061438628841,0.0004912630652984595
-4.808671233824674,0.0004997761347694057
-4.803281029020507,0.0005083766133968679
-4.797890824216339,0.000517068878999201
-4.792500619412172,0.0005258574460063879
-4.787110414608004,0.0005347469486134265
-4.7817202098038365,0.0005437421231938733
-4.776330004999669,0.0005528477900613778
-4.770939800195502,0.0005620688346733051
-4.7655495953913345,0.0005714101883723729
-4.760159390587167,0.0005808768087666814
-4.754769185782999,0.0005904736598497662
-4.749378980978832,0.0006002056919667906
-4.743988776174664,0.0006100778217296788
-4.738598571370496,0.0006200949119900519
-4.73320836656633,0.0006302617519740083
-4.727818161762162,0.0006405830376849109
-4.722427956957994,0.0006510633526774275
-4.717037752153827,0.0006617071493050068
-4.711647547349659,0.0006725187305394332
-4.706257342545491,0.000683502232457717
-4.700867137741325,0.000694661607488641
-4.695476932937157,0.0007060006085057645
-4.690086728132989,0.0007175227738494142
-4.684696523328822,0.0007292314133535305
-4.679306318524654,0.0007411295954488162
-4.6739161137204865,0.0007532201354071978
-4.668525908916319,0.0007655055847836626
-4.663135704112152,0.000777988222108018
-4.6577454993079845,0.0007906700448691113
-4.652355294503817,0.0008035527628278807
-4.646965089699649,0.0008166377926882927
-4.641574884895482,0.0008299262541466687
-4.636184680091314,0.0008434189673328634
-4.630794475287146,0.0008571164516491814
-4.62540427048298,0.0008710189260048259
-4.620014065678812,0.0008851263104368498
-4.614623860874644,0.0008994382291008878
-4.609233656070477,0.0009139540146080559
-4.603843451266309,0.0009286727136775625
-4.5984532464621415,0.000943593094068225
-4.593063041657975,0.000958713652745833
-4.587672836853807,0.0009740326252377866
-4.5822826320496395,0.0009895479961199516
-4.576892427245472,0.0010052575105786278
-4.571502222441304,0.0010211586869818727
-4.566112017637137,0.0010372488303939846
-4.560721812832969,0.0010535250469624075
-4.555331608028802,0.001069984259101685
-4.549941403224635,0.0010866232213992836
-4.544551198420467,0.0011034385371635367
-4.539160993616299,0.0011204266755350223
-4.533770788812132,0.0011375839890779642
-4.528380584007964,0.0011549067317720894
-4.522990379203796,0.0011723910773216166
-4.51760017439963,0.0011900331376998438
-4.512209969595462,0.0012078289818487744
-4.506819764791294,0.0012257746544529985
-4.501429559987127,0.0012438661947105714
-4.496039355182959,0.0012620996550225495
-4.4906491503787915,0.0012804711195274613
-4.485258945574625,0.0012989767224082076
-4.479868740770457,0.0013176126659008081
-4.4744785359662895,0.0013363752379383213
-4.469088331162122,0.0013552608293659688
-4.463698126357954,0.0013742659506647927
-4.458307921553787,0.00139338724812773
-4.452917716749619,0.0014126215194311537
-4.447527511945452,0.0014319657285517043
-4.442137307141285,0.0014514170199790054
-4.436747102337117,0.001470972732179836
-4.431356897532949,0.001490630410271014
-4.425966692728782,0.0015103878178630873
-4.420576487924614,0.0015302429480388994
-4.415186283120447,0.0015501940334342428
-4.40979607831628,0.0015702395553915567
-4.404405873512112,0.001590378252159976
-4.3990156687079445,0.0016106091261176752
-4.393625463903777,0.0016309314499954267
-4.388235259099609,0.001651344772084097
-4.382845054295442,0.0016718489204085559
-4.377454849491275,0.0016924440058558865
-4.372064644687107,0.001713130424247443
-4.36667443988294,0.0017339088573454036
-4.361284235078772,0.0017547802727883302
-4.355894030274604,0.0017757459229530191
-4.350503825470437,0.0017968073427402642
-4.345113620666269,0.0018179663462873047
-4.339723415862102,0.0018392250226100205
-4.334333211057935,0.0018605857301817
-4.328943006253767,0.0018820510904584533
-4.323552801449599,0.0019036239803620534
-4.318162596645432,0.0019253075237366875
-4.312772391841264,0.001947105081797179
-4.307382187037097,0.00196902024258992
-4.30199198223293,0.0019910568094926983
-4.296601777428762,0.002013218788780765
-4.2912115726245945,0.0020355103762922377
-4.285821367820427,0.0020579359432295794
-4.280431163016259,0.0020805000211373825
-4.275040958212092,0.0021032072861016764
-4.269650753407925,0.0021260625422206162
-4.264260548603757,0.0021490707044006982
-4.25887034379959,0.002172236780538021
-4.253480138995422,0.002195565853147621
-4.248089934191254,0.002219063060512078
-4.242699729387087,0.0022427335774210418
-4.23730952458292,0.0022665825955827243
-4.231919319778752,0.0022906153037913863
-4.226529114974585,0.0023148368679386305
-4.221138910170417,0.0023392524109639807
-4.2157487053662495,0.0023638669928427525
-4.210358500562082,0.0023886855907136076
-4.204968295757914,0.0024137130792532737
-4.1995780909537475,0.0024389542114088944
-4.19418788614958,0.002464413599602166
-4.188797681345412,0.0024900956975212434
-4.183407476541245,0.002516004782620355
-4.178017271737077,0.0025421449394470302
-4.172627066932909,0.0025685200439194773
-4.167236862128742,0.0025951337486753855
-4.161846657324575,0.0026219894696139848
-4.156456452520407,0.002649090373753058
-4.15106624771624,0.002676439368517598
-4.145676042912072,0.002704039092577026
-4.140285838107904,0.0027318919083430967
-4.134895633303737,0.002759999896234668
-4.12950542849957,0.0027883648508116735
-4.124115223695402,0.0028169882788747873
-4.118725018891235,0.002845871399615799
-4.113334814087067,0.002875015146900912
-4.1079446092828995,0.0029044201737559215
-4.102554404478732,0.002934086859113674
-4.097164199674564,0.0029640153168730503
-4.0917739948703975,0.0029942054073073916
-4.08638379006623,0.0030246567508471532
-4.080993585262062,0.0030553687442491278
-4.075603380457895,0.003086340579150303
-4.070213175653727,0.003117571262991139
-4.064822970849559,0.003149059642277071
-4.059432766045393,0.0031808044281338927
-4.054042561241225,0.0032128042240952585
-4.048652356437057,0.003245057556047549
-4.04326215163289,0.0032775629042405274
-4.037871946828722,0.003310318737257188
-4.0324817420245544,0.003343323547821575
-4.027091537220387,0.003376575890308965
-4.02170133241622,0.003410074419807485
-4.0163111276120524,0.0034438179325676508
-4.010920922807885,0.003477805407663066
-4.005530718003717,0.003512036049673109
-4.0001405131995496,0.003546509332187722
-3.9947503083953824,0.0035812250419240384
-3.9893601035912147,0.003616183323234918
-3.983969898787047,0.003651384722783253
-3.97857969398288,0.0036868302341474903
-3.9731894891787123,0.003722521342120463
-3.9677992843745447,0.0037584600664582663
-3.962409079570377,0.003794649004835652
-3.95701887476621,0.003831091374762558
-3.951628669962042,0.003867791054217829
-3.9462384651578746,0.003904752620759025
-3.9408482603537074,0.003941981388871614
-3.9354580555495398,0.003979483445326712
-3.930067850745372,0.0040172656823236515
-3.924677645941205,0.004055335828204149
-3.9192874411370373,0.004093702475534117
-3.9138972363328697,0.004132375106362445
-3.9085070315287025,0.004171364114478847
-3.903116826724535,0.0042106808245094066
-3.8977266219203672,0.0042503375077024026
-3.8923364171161996,0.004290347394276007
-3.8869462123120324,0.004330724682218674
-3.881556007507865,0.004371484542448983
-3.876165802703697,0.004412643120265433
-3.87077559789953,0.004454217533035829
-3.8653853930953623,0.004496225864095821
-3.8599951882911947,0.004538687152850272
-3.8546049834870275,0.004581621381090225
-3.84921477868286,0.004625049455562068
-3.8438245738786923,0.004668993186843962
-3.8384343690745246,0.0047134752646100005
-3.8330441642703574,0.004758519229378824
-3.82765395946619,0.004804149440866033
-3.822263754662022,0.004850391043079066
-3.816873549857855,0.004897269926308761
-3.8114833450536874,0.004944812686193386
-3.8060931402495197,0.004993046580042324
-3.8007029354453525,0.0050419994806245195
-3.795312730641185,0.005091699827638771
-3.7899225258370173,0.00514217657709392
-3.7845323210328496,0.005193459148838871
-3.7791421162286825,0.005245577372489041
-3.773751911424515,0.005298561432002826
-3.768361706620347,0.005352441809167774
-3.76297150181618,0.005407249226256641
-3.7575812970120124,0.005463014588117585
-3.7521910922078447,0.005519768923959496
-3.7468008874036776,0.005577543329093127
-3.74141068259951,0.005636368906882539
-3.7360204777953423,0.005696276711156911
-3.730630272991175,0.00575729768932526
-3.7252400681870075,0.005819462626425175
-3.71984986338284,0.00588280209032907
-3.714459658578672,0.005947346378318107
-3.709069453774505,0.006013125465219384
-3.7036792489703374,0.0060801689532900575
-3.6982890441661698,0.006148506024014798
-3.6928988393620026,0.006218165391967772
-3.687508634557835,0.006289175260872191
-3.6821184297536673,0.006361563281975152
-3.6767282249495,0.006435356514834919
-3.6713380201453325,0.006510581390601738
-3.665947815341165,0.006587263677854374
-3.6605576105369972,0.006665428451036473
-3.65516740573283,0.006745100061519286
-3.6497772009286624,0.0068263021112990475
-3.644386996124495,0.006909057429321827
-3.6389967913203276,0.00699338805041165
-3.63360658651616,0.007079315196761627
-3.6282163817119923,0.007166859261935115
-3.622826176907825,0.007256039797308715
-3.6174359721036575,0.007346875500877678
-3.61204576729949,0.007439384208333215
-3.6066555624953223,0.007533582886310857
-3.601265357691155,0.007629487627700845
-3.5958751528869874,0.007727113648904271
-3.59048494808282,0.007826475288913958
-3.5850947432786526,0.007927586010092608
-3.579704538474485,0.008030458400520529
-3.5743143336703174,0.008135104177781686
-3.56892412886615,0.008241534194057341
-3.5635339240619825,0.008349758442397773
-3.558143719257815,0.008459786064045564
-3.5527535144536477,0.008571625356684416
-3.54736330964948,0.008685283783496502
-3.5419731048453125,0.008800767982913432
-3.536582900041145,0.008918083778952675
-3.5311926952369777,0.009037236192039572
-3.52580249043281,0.009158229450221992
-3.5204122856286424,0.009281067000691947
-3.515022080824475,0.009405751521538832
-3.5096318760203076,0.009532284933665366
-3.50424167121614,0.00966066841280815
-3.4988514664119728,0.00979090240161161
-3.493461261607805,0.009922986621713824
-3.4880710568036375,0.010056920085810779
-3.48268085199947,0.010192701109672336
-3.4772906471953027,0.010330327324091965
-3.471900442391135,0.010469795686757773
-3.4665102375869674,0.010611102494038368
-3.4611200327828002,0.010754243392683402
-3.4557298279786326,0.010899213391440636
-3.450339623174465,0.011046006872597443
-3.4449494183702978,0.011194617603454565
-3.43955921356613,0.011345038747742764
-3.4341690087619625,0.011497262876994239
-3.428778803957795,0.011651281981877433
-3.4233885991536277,0.011807087483505483
-3.41799839434946,0.01196467024472508
-3.4126081895452924,0.012124020581388246
-3.4072179847411252,0.012285128273607396
-3.4018277799369576,0.012447982576988932
-3.39643757513279,0.012612572233834218
-3.391047370328623,0.012778885484292925
-3.385657165524455,0.01294691007744648
-3.3802669607202875,0.013116633282292832
-3.3748767559161204,0.013288041898598179
-3.3694865511119527,0.013461122267574257
-3.364096346307785,0.013635860282333063
-3.3587061415036175,0.013812241398065486
-3.3533159366994503,0.01399025064188412
-3.3479257318952826,0.014169872622265826
-3.342535527091115,0.014351091538023966
-3.337145322286948,0.014533891186738543
-3.33175511748278,0.014718254972567443
-3.3263649126786126,0.014904165913361415
-3.3209747078744454,0.015091606647004681
-3.3155845030702777,0.01528055943690302
-3.31019429826611,0.01547100617654354
-3.3048040934619425,0.015662928393052538
-3.2994138886577753,0.01585630724968288
-3.2940236838536077,0.01605112354716844
-3.28863347904944,0.016247357723888793
-3.283243274245273,0.016444989854797573
-3.277853069441105,0.01664399964907679
-3.2724628646369376,0.016844366446490122
-3.2670726598327704,0.01704606921242144
-3.2616824550286028,0.017249086531597877
-3.256292250224435,0.01745339660051109
-3.2509020454202675,0.017658977218565162
-3.2455118406161003,0.01786580577799736
-3.2401216358119327,0.018073859252633065
-3.234731431007765,0.018283114185554252
-3.229341226203598,0.018493546675778568
-3.2239510213994302,0.018705132364063223
-3.2185608165952626,0.01891784641796642
-3.2131706117910954,0.019131663516315775
-3.207780406986928,0.019346557833250476
-3.20239020218276,0.019562503022020148
-3.196999997378593,0.019779472198740627
-3.1916097925744253,0.019997437926318466
-3.1862195877702577,0.0202163721987725
-3.18082938296609,0.020436246426191986
-3.175439178161923,0.020657031420580563
-3.1700489733577553,0.020878697382846593
-3.1646587685535876,0.021101213891205707
-3.1592685637494204,0.021324549891268307
-3.153878358945253,0.021548673688087477
-3.148488154141085,0.02177355294044496
-3.143097949336918,0.021999154657651548
-3.1377077445327504,0.022225445199135187
-3.1323175397285827,0.022452390277086533
-3.126927334924415,0.022679954962422037
-3.121537130120248,0.02290810369431744
-3.1161469253160803,0.02313680029355106
-3.1107567205119127,0.02336600797988364
-3.1053665157077455,0.02359568939368528
-3.099976310903578,0.02382580662200206
-3.09458610609941,0.024056321229234862
-3.089195901295243,0.024287194292583247
-3.0838056964910754,0.02451838644238146
-3.0784154916869078,0.02474985790743247
-3.07302528688274,0.0249815685654173
-3.067635082078573,0.025213477998432692
-3.0622448772744053,0.02544554555368045
-3.0568546724702377,0.02567773040930559
-3.0514644676660705,0.02590999164534968
-3.046074262861903,0.026142288319758296
-3.0406840580577352,0.026374579549351483
-3.035293853253568,0.026606824595637478
-3.0299036484494004,0.026838982955321024
-3.024513443645233,0.027071014455330188
-3.0191232388410656,0.02730287935215736
-3.013733034036898,0.027534538435283383
-3.0083428292327303,0.027765953134430567
-3.0029526244285627,0.02799708563036221
