Values,Density
-4.994156731632383,2.162268923910915e-7
-4.9891981529064005,2.1842945038819117e-7
-4.9842395741804175,2.2271885558033944e-7
-4.979280995454434,2.2912655509021995e-7
-4.974322416728451,2.376989750862979e-7
-4.969363838002468,2.484977321970394e-7
-4.964405259276485,2.6159990793028776e-7
-4.959446680550501,2.7709838720801905e-7
-4.954488101824518,2.9510226101647774e-7
-4.949529523098535,3.1573729317169175e-7
-4.944570944372552,3.3914645164445645e-7
-4.9396123656465685,3.6549050461132104e-7
-4.9346537869205855,3.94948681509133e-7
-4.929695208194603,4.277193993429407e-7
-4.92473662946862,4.6402105419174333e-7
-4.919778050742637,5.040928781063769e-7
-4.914819472016653,5.481958615938254e-7
-4.90986089329067,5.9661374135489e-7
-4.904902314564687,6.496540539135953e-7
-4.899943735838704,7.076492536672863e-7
-4.89498515711272,7.709578965231501e-7
-4.890026578386737,8.399658870950066e-7
-4.8850679996607544,9.150877910424349e-7
-4.8801094209347715,9.967682096934105e-7
-4.875150842208788,1.085483216867189e-6
-4.870192263482805,1.1817418576476335e-6
-4.865233684756822,1.2860877065534737e-6
-4.860275106030839,1.3991004842728305e-6
-4.855316527304856,1.5213977315187144e-6
-4.850357948578872,1.6536365367303407e-6
-4.845399369852889,1.7965153174537285e-6
-4.840440791126906,1.9507756507108898e-6
-4.835482212400923,2.1172041507716392e-6
-4.8305236336749395,2.2966343910212073e-6
-4.825565054948957,2.489948866174702e-6
-4.820606476222974,2.6980809903929745e-6
-4.815647897496991,2.922017129056457e-6
-4.810689318771008,3.162798656971633e-6
-4.805730740045024,3.421524040113583e-6
-4.800772161319041,3.6993509342053265e-6
-4.795813582593058,3.9974982954282985e-6
-4.790855003867075,4.317248496190848e-6
-4.785896425141091,4.659949439619329e-6
-4.780937846415108,5.0270166657823655e-6
-4.7759792676891255,5.419935442558263e-6
-4.771020688963143,5.840262832642381e-6
-4.766062110237159,6.289629728366709e-6
-4.761103531511176,6.769742846565079e-6
-4.756144952785193,7.282386673539707e-6
-4.75118637405921,7.829425350402899e-6
-4.746227795333227,8.412804490419553e-6
-4.741269216607243,9.034552915949783e-6
-4.73631063788126,9.696784306999781e-6
-4.731352059155277,1.0401698747532e-5
-4.726393480429294,1.1151584161566384e-5
-4.721434901703311,1.1948817625463551e-5
-4.716476322977328,1.2795866545212229e-5
-4.711517744251345,1.3695289687624566e-5
-4.706559165525362,1.4649738053310567e-5
-4.701600586799378,1.5661955578058235e-5
-4.696642008073395,1.673477965309601e-5
-4.691683429347412,1.787114144923647e-5
-4.686724850621429,1.9074066035635294e-5
-4.681766271895446,2.0346672278765722e-5
-4.676807693169462,2.1692172511272e-5
-4.6718491144434795,2.3113871959356234e-5
-4.666890535717497,2.4615167915710383e-5
-4.661931956991514,2.619954864913586e-5
-4.65697337826553,2.787059203888942e-5
-4.652014799539547,2.9631963923825756e-5
-4.647056220813564,3.148741615760335e-5
-4.642097642087581,3.344078436007952e-5
-4.637139063361597,3.549598535711705e-5
-4.632180484635614,3.76570143015148e-5
-4.627221905909631,3.9927941467330676e-5
-4.622263327183648,4.2312908713113516e-5
-4.6173047484576655,4.481612560820053e-5
-4.612346169731682,4.7441865218663705e-5
-4.607387591005699,5.019445954927877e-5
-4.602429012279716,5.3078294641564425e-5
-4.597470433553733,5.609780532517348e-5
-4.592511854827749,5.9257469624500805e-5
-4.587553276101766,6.256180282333303e-5
-4.582594697375783,6.60153511884004e-5
-4.5776361186498,6.9622685359331e-5
-4.572677539923816,7.338839340834298e-5
-4.5677189611978335,7.73170735799255e-5
-4.562760382471851,8.14133267166171e-5
-4.557801803745868,8.568174838320935e-5
-4.552843225019885,9.012692070068523e-5
-4.547884646293901,9.475340390250123e-5
-4.542926067567918,9.95657276290779e-5
-4.537967488841935,0.00010456838197553647
-4.533008910115952,0.00010976580831122129
-4.528050331389968,0.000115162389889731
-4.523091752663985,0.00012076244226927931
-4.518133173938002,0.00012657020356601854
-4.5131745952120195,0.00013258982456250228
-4.508216016486036,0.00013882535869578008
-4.503257437760053,0.000145280751950627
-4.49829885903407,0.00015195983268385862
-4.493340280308087,0.0001588663014071524
-4.488381701582104,0.00016600372055705897
-4.48342312285612,0.00017337550428090948
-4.478464544130137,0.00018098490826829773
-4.473505965404154,0.00018883501965909384
-4.468547386678171,0.00019692874705816172
-4.4635888079521875,0.00020526881068859935
-4.4586302292262046,0.00021385773271468973
-4.453671650500222,0.00022269782776679695
-4.448713071774239,0.00023179119369883417
-4.443754493048256,0.00024113970261139313
-4.438795914322272,0.00025074499217052435
-4.433837335596289,0.00026060845725388564
-4.428878756870306,0.0002707312419551284
-4.423920178144323,0.00028111423197535804
-4.418961599418339,0.0002917580474320978
-4.414003020692356,0.00030266303611291377
-4.4090444419663735,0.0003138292672025308
-4.4040858632403905,0.0003252565255080081
-4.399127284514407,0.0003369443062082988
-4.394168705788424,0.00034889181015189744
-4.389210127062441,0.00036109793972414
-4.384251548336458,0.00037356129530569625
-4.379292969610475,0.00038628017234165757
-4.374334390884491,0.0003992525590384051
-4.369375812158508,0.0004124761347044509
-4.364417233432525,0.0004259482687494903
-4.359458654706542,0.00043966602035305736
-4.3545000759805585,0.000453626138814861
-4.349541497254576,0.0004678250645934129
-4.344582918528593,0.0004822589310402607
-4.33962433980261,0.0004969235668346806
-4.334665761076626,0.0005118144991205845
-4.329707182350643,0.0005269269573462678
-4.32474860362466,0.000542255877805954
-4.319790024898677,0.0005577959088792642
-4.314831446172694,0.0005735414169632932
-4.30987286744671,0.0005894864930897246
-4.3049142887207275,0.0006056249602185201
-4.2999557099947445,0.0006219503811959329
-4.294997131268762,0.000638456067365273
-4.290038552542778,0.0006551350878146499
-4.285079973816795,0.0006719802792468765
-4.280121395090812,0.0006889842564521669
-4.275162816364829,0.0007061394233654986
-4.270204237638845,0.000723437984687934
-4.265245658912862,0.0007408719580483114
-4.260287080186879,0.0007584331866844034
-4.255328501460896,0.0007761133526162992
-4.250369922734913,0.0007939039902891427
-4.24541134400893,0.0008117965006561399
-4.240452765282947,0.000829782165675863
-4.235494186556964,0.0008478521631953197
-4.230535607830981,0.0008659975821888495
-4.225577029104997,0.000884209438324764
-4.220618450379014,0.0009024786898272318
-4.215659871653031,0.0009207962536053535
-4.210701292927048,0.0009391530216161497
-4.205742714201064,0.0009575398774311194
-4.2007841354750814,0.0009759477129747717
-4.1958255567490985,0.0009943674454033777
-4.190866978023116,0.0010127900340914293
-4.185908399297133,0.0010312064976958366
-4.180949820571149,0.0010496079312637954
-4.175991241845166,0.0010679855233551167
-4.171032663119183,0.0010863305731462084
-4.1660740843932,0.0011046345074851175
-4.161115505667216,0.0011228888978678138
-4.156156926941233,0.0011410854773039238
-4.15119834821525,0.0011592161570435746
-4.146239769489267,0.0011772730431355632
-4.1412811907632845,0.0011952484527880452
-4.136322612037301,0.0012131349305044047
-4.131364033311318,0.0012309252639659072
-4.126405454585335,0.0012486124996360709
-4.121446875859352,0.0012661899580602327
-4.116488297133368,0.001283651248834899
-4.111529718407385,0.001300990285224967
-4.106571139681402,0.0013182012984033833
-4.101612560955419,0.0013352788512940392
-4.096653982229435,0.0013522178519945697
-4.0916954035034525,0.0013690135667621776
-4.08673682477747,0.0013856616325419492
-4.081778246051487,0.0014021580690218739
-4.076819667325504,0.001418499290199068
-4.07186108859952,0.0014346821154421104
-4.066902509873537,0.001450703780037468
-4.061943931147554,0.001466561945208951
-4.056985352421571,0.0014822547075999844
-4.052026773695587,0.0014977806082116674
-4.047068194969604,0.001513138640789823
-4.042109616243621,0.0015283282596564047
-4.0371510375176385,0.0015433493869844222
-4.032192458791655,0.0015582024195129312
-4.027233880065672,0.0015728882347060017
-4.022275301339689,0.001587408196356793
-4.017316722613706,0.0016017641596432616
-4.012358143887723,0.001615958475641461
-4.007399565161739,0.0016299939953062824
-4.002440986435756,0.0016438740729298991
-3.9974824077097733,0.0016576025690919673
-3.99252382898379,0.0016711838531149057
-3.987565250257807,0.0016846228050425823
-3.9826066715318236,0.0016979248171595275
-3.9776480928058406,0.0017110957950727803
-3.9726895140798573,0.0017241421583758512
-3.9677309353538743,0.0017370708409214291
-3.962772356627891,0.0017498892907250943
-3.957813777901908,0.0017626054695280124
-3.952855199175925,0.001775227852046285
-3.9478966204499417,0.001787765424933906
-3.942938041723959,0.001800227685490905
-3.9379794629979754,0.0018126246401452238
-3.9330208842719925,0.001824966802739728
-3.928062305546009,0.0018372651926547873
-3.923103726820026,0.0018495313327968142
-3.918145148094043,0.0018617772474851697
-3.91318656936806,0.0018740154602649457
-3.9082279906420765,0.0018862589916771519
-3.9032694119160936,0.001898521357013674
-3.8983108331901106,0.001910816564084504
-3.8933522544641272,0.001923159111022579
-3.8883936757381443,0.0019355639841501654
-3.883435097012161,0.0019480466559281618
-3.878476518286178,0.001960623083008369
-3.8735179395601946,0.0019733097044038004
-3.8685593608342117,0.0019861234397927346
-3.8636007821082283,0.0019990816879653373
-3.8586422033822454,0.002012202325420982
-3.853683624656262,0.00202550370511944
-3.848725045930279,0.002039004655385648
-3.8437664672042957,0.0020527244789635777
-3.838807888478313,0.0020666829522109536
-3.83384930975233,0.002080900324421324
-3.8288907310263465,0.0020953973172567154
-3.8239321523003635,0.0021101951242684363
-3.81897357357438,0.002125315410479507
-3.8140149948483972,0.002140780311997093
-3.809056416122414,0.0021566124356200544
-3.804097837396431,0.002172834858399475
-3.7991392586704475,0.002189471127107708
-3.7941806799444646,0.002206545257566715
-3.7892221012184812,0.0022240817337806796
-3.7842635224924983,0.0022421055068150425
-3.779304943766515,0.0022606419933600946
-3.774346365040532,0.0022797170739127914
-3.769387786314549,0.002299357090507735
-3.7644292075885657,0.002319588843924282
-3.7594706288625828,0.0023404395902954945
-3.7545120501365994,0.002361937037040329
-3.7495534714106165,0.002384109338039765
-3.744594892684633,0.002406985087976092
-3.73963631395865,0.0024305933157523236
-3.7346777352326668,0.002454963476909806
-3.729719156506684,0.0024801254449600286
-3.7247605777807005,0.002506109501549281
-3.7198019990547175,0.0025329463253739993
-3.7148434203287346,0.002560666979767087
-3.7098848416027512,0.00258930289887763
-3.7049262628767683,0.0026188858723686687
-3.699967684150785,0.0026494480285615685
-3.695009105424802,0.002681021815958857
-3.6900505266988186,0.0027136399830820813
-3.6850919479728357,0.0027473355565662753
-3.6801333692468523,0.0027821418174582002
-3.6751747905208694,0.002818092275670752
-3.670216211794886,0.0028552206425539717
-3.665257633068903,0.002893560801549004
-3.6602990543429197,0.002933146776899123
-3.6553404756169368,0.0029740127003998434
-3.650381896890954,0.003016192776178986
-3.6454233181649704,0.00305972124350514
-3.6404647394389875,0.003104632337632836
-3.635506160713004,0.0031509602487026305
-3.630547581987021,0.003198739078720866
-3.625589003261038,0.003248002796658049
-3.620630424535055,0.003298785191709794
-3.6156718458090715,0.0033511198247790385
-3.6107132670830886,0.0034050399782426734
-3.605754688357105,0.0034605786040815094
-3.6007961096311223,0.0035177682704572856
-3.5958375309051394,0.003576641106833608
-3.590878952179156,0.0036372287477454053
-3.585920373453173,0.0036995622753316477
-3.5809617947271897,0.0037636721607546986
-3.5760032160012067,0.003829588204639332
-3.5710446372752234,0.003897339476671295
-3.5660860585492404,0.003966954254505105
-3.561127479823257,0.004038459962137229
-3.556168901097274,0.004111883107907692
-3.5512103223712908,0.004187249222301003
-3.546251743645308,0.004264582795722199
-3.5412931649193244,0.004343907216428894
-3.5363345861933415,0.004425244708806994
-3.5313760074673586,0.004508616272179325
-3.526417428741375,0.004594041620342172
-3.5214588500153923,0.004681539122026043
-3.516500271289409,0.0047711257424800325
-3.511541692563426,0.004862816986379988
-3.5065831138374426,0.00495662684226217
-3.5016245351114597,0.005052567728682997
-3.4966659563854763,0.005150650442305577
-3.4917073776594933,0.005250884108112594
-3.48674879893351,0.0053532761319416075
-3.481790220207527,0.005457832155537166
-3.4768316414815437,0.005564556014310669
-3.4718730627555607,0.005673449697993554
-3.466914484029578,0.0057845133143652055
-3.4619559053035944,0.0058977450562319195
-3.4569973265776115,0.006013141171826103
-3.452038747851628,0.006130695938788136
-3.447080169125645,0.006250401641887303
-3.442121590399662,0.006372248554628158
-3.437163011673679,0.006496224924882216
-3.4322044329476955,0.006622316964674246
-3.4272458542217126,0.006750508844244316
-3.422287275495729,0.006880782690495612
-3.4173286967697463,0.007013118589929259
-3.4123701180437633,0.007147494596154371
-3.40741153931778,0.007283886742053066
-3.402452960591797,0.007422269056667139
-3.3974943818658137,0.007562613586860988
-3.3925358031398307,0.00770489042380582
-3.3875772244138473,0.007849067734314135
-3.3826186456878644,0.007995111797045103
-3.377660066961881,0.008142987043585601
-3.372701488235898,0.0082926561044008
-3.3677429095099147,0.008444079859633812
-3.362784330783932,0.008597217494722887
-3.3578257520579484,0.00875202656078889
-3.3528671733319655,0.008908463039734877
-3.3479085946059826,0.009066481413984733
-3.342950015879999,0.009226034740776837
-3.3379914371540162,0.00938707473091123
-3.333032858428033,0.009549551831841877
-3.32807427970205,0.009713415314986103
-3.3231157009760666,0.009878613367114384
-3.3181571222500836,0.010045093185670505
-3.3131985435241003,0.010212801077856123
-3.3082399647981173,0.01038168256330593
-3.303281386072134,0.01055168248016362
-3.298322807346151,0.010722745094357935
-3.2933642286201676,0.010894814211866386
-3.2884056498941847,0.011067833293742444
-3.283447071168202,0.011241745573671181
-3.2784884924422184,0.011416494177805282
-3.2735299137162355,0.011592022246626456
-3.268571334990252,0.011768273058563304
-3.263612756264269,0.011945190155090046
-3.258654177538286,0.01212271746701892
-3.253695598812303,0.01230079944169227
-3.2487370200863195,0.01247938117077077
-3.2437784413603366,0.012658408518307948
-3.238819862634353,0.012837828248792886
-3.2338612839083702,0.013017588154838496
-3.2289027051823873,0.013197637184185831
-3.223944126456404,0.013377925565690663
-3.218985547730421,0.013558404933955989
-3.2140269690044376,0.01373902845226824
-3.2090683902784547,0.013919750933496483
-3.2041098115524713,0.014100528958609788
-3.1991512328264884,0.014281320992469343
-3.194192654100505,0.014462087496552617
-3.189234075374522,0.014642791038268248
-3.1842754966485387,0.01482339639652417
-3.1793169179225558,0.015003870663214845
-3.1743583391965724,0.015184183340299718
-3.1693997604705895,0.015364306432150733
-3.1644411817446065,0.015544214532854648
-3.159482603018623,0.015723884908166005
-3.1545240242926402,0.015903297571814478
-3.149565445566657,0.016082435355884293
-3.144606866840674,0.01626128397499412
-3.1396482881146905,0.016439832084021444
-3.1346897093887076,0.016618071329128938
-3.1297311306627242,0.016795996391868233
-3.1247725519367413,0.016973605026152874
-3.119813973210758,0.017150898087911988
-3.114855394484775,0.017327879557254955
-3.109896815758792,0.017504556552999463
-3.1049382370328087,0.01768093933943664
-3.0999796583068258,0.017857041325229216
-3.0950210795808424,0.018032879054364445
-3.0900625008548595,0.018208472189105197
-3.085103922128876,0.01838384348491193
-3.080145343402893,0.018559018757329532
-3.0751867646769098,0.018734026840863623
-3.070228185950927,0.018908899539896315
-3.0652696072249435,0.019083671571717864
-3.0603110284989605,0.019258380501779866
-3.055352449772977,0.019433066671302787
-3.050393871046994,0.019607773117397278
-3.0454352923210113,0.01978254548588807
-3.040476713595028,0.019957431937055122
-3.035518134869045,0.020132483044533654
-3.0305595561430616,0.0203077516876422
-3.0256009774170787,0.02048329293743182
-3.0206423986910953,0.020659163936775485
-3.0156838199651124,0.020835423774841117
-3.010725241239129,0.021012133356312388
-3.005766662513146,0.021189355265745537
-3.0008080837871627,0.021367153627469965
-2.9958495050611798,0.021545593961457398
-2.9908909263351964,0.021724743035605447
-2.9859323476092134,0.021904668714892557
-2.9809737688832305,0.022085439807879786
-2.976015190157247,0.022267125911041935
-2.971056611431264,0.022449797251425388
-2.966098032705281,0.02263352452813429
-2.961139453979298,0.022818378753153526
-2.9561808752533145,0.023004431092022923
-2.9512222965273316,0.02319175270487373
-2.946263717801348,0.023380414588343022
-2.9413051390753653,0.02357048741887434
-2.936346560349382,0.02376204139790998
-2.931387981623399,0.0239551460994714
-2.926429402897416,0.024149870320615486
-2.9214708241714327,0.024346281935240223
-2.9165122454454497,0.02454444775170186
-2.9115536667194664,0.024744433374686462
-2.9065950879934834,0.024946303071761617
-2.9016365092675,0.025150119645013166
-2.896677930541517,0.025355944308149636
-2.8917193518155337,0.0255638365694323
-2.886760773089551,0.025773854120763336
-2.8818021943635674,0.025986052733236512
-2.8768436156375845,0.026200486159427605
-2.871885036911601,0.026417206042669086
-2.866926458185618,0.02663626183352455
-2.8619678794596353,0.026857700713645533
-2.857009300733652,0.027081567527160556
-2.852050722007669,0.027307904719711906
-2.8470921432816856,0.027536752285223575
-2.8421335645557027,0.027768147720448555
-2.8371749858297193,0.0280021259873089
-2.8322164071037363,0.0282387194830099
-2.827257828377753,0.028477958017874862
-2.82229924965177,0.028719868800814036
-2.8173406709257867,0.028964476432309087
-2.8123820921998037,0.0292118029047636
-2.8074235134738204,0.029461867610039057
-2.8024649347478374,0.029714687353967026
-2.7975063560218545,0.02997027637760065
-2.792547777295871,0.030228646384942548
-2.787589198569888,0.0304898065768621
-2.782630619843905,0.030753763690891674
-2.777672041117922,0.0310205220465727
-2.7727134623919385,0.03129008359600171
-2.7677548836659556,0.0315624479792131
-2.762796304939972,0.03183761258401846
-2.7578377262139893,0.03211557260991361
-2.752879147488006,0.032396321135653015
-2.747920568762023,0.03267984919008663
-2.74296199003604,0.03296614582584752
-2.7380034113100566,0.03325519819548046
-2.7330448325840737,0.03354699162959824
-2.7280862538580903,0.033841509716659446
-2.7231276751321074,0.03413873438396478
-2.718169096406124,0.03443864597947788
-2.713210517680141,0.0347412233540874
-2.7082519389541577,0.03504644394393831
-2.703293360228175,0.03535428385247693
-2.6983347815021914,0.03566471793186965
-2.6933762027762085,0.03597771986347402
-2.688417624050225,0.03629326223706252
-2.683459045324242,0.03661131662851981
-2.6785004665982592,0.03693185367575873
-2.673541887872276,0.03725484315262516
-2.668583309146293,0.03758025404058766
-2.6636247304203096,0.037908054598034424
-2.6586661516943266,0.03823821242702838
-2.6537075729683433,0.03857069453739917
-2.6487489942423603,0.03890546740808017
-2.643790415516377,0.039242497045625664
-2.638831836790394,0.03958174903987518
-2.6338732580644106,0.03992318861675759
-2.6289146793384277,0.04026678068825825
-2.6239561006124443,0.0406124898995987
-2.6189975218864614,0.04096028067370597
-2.6140389431604785,0.041310117253074735
-2.609080364434495,0.04166196373914988
-2.604121785708512,0.04201578412938073
-2.599163206982529,0.04237154235212057
-2.594204628256546,0.042729202299566074
-2.5892460495305625,0.04308872785894771
-2.5842874708045795,0.043450082942202525
-2.579328892078596,0.043813231514372754
-2.5743703133526132,0.04417813762098728
-2.56941173462663,0.04454476541469428
-2.564453155900647,0.04491307918142128
-2.559494577174664,0.04528304336634348
