Values,Density
-11.61257344283407,1.1666403912091727e-6
-11.60117164823817,1.1749203738323222e-6
-11.589769853642268,1.1857086930078253e-6
-11.578368059046369,1.1990272154940862e-6
-11.566966264450468,1.21490192233481e-6
-11.555564469854568,1.2333629464261753e-6
-11.544162675258669,1.2544446145248966e-6
-11.532760880662767,1.2781854935584036e-6
-11.521359086066868,1.3046284414106046e-6
-11.509957291470966,1.333820662204055e-6
-11.498555496875067,1.365813765849544e-6
-11.487153702279167,1.4006638323696419e-6
-11.475751907683266,1.4384314806978327e-6
-11.464350113087367,1.479181941994867e-6
-11.452948318491465,1.522985137711319e-6
-11.441546523895566,1.5699157622922622e-6
-11.430144729299666,1.6200533706489662e-6
-11.418742934703765,1.6734824703490414e-6
-11.407341140107865,1.7302926186221756e-6
-11.395939345511964,1.7905785243965688e-6
-11.384537550916065,1.8544401549636103e-6
-11.373135756320163,1.9219828478744816e-6
-11.361733961724264,1.9933174276662302e-6
-11.350332167128364,2.0685603278058906e-6
-11.338930372532463,2.1478337176167317e-6
-11.327528577936564,2.23126563443643e-6
-11.316126783340662,2.318990120965536e-6
-11.304724988744763,2.4111473679727657e-6
-11.293323194148863,2.507883862148952e-6
-11.281921399552962,2.6093525395884387e-6
-11.270519604957062,2.715712944433013e-6
-11.259117810361161,2.827131393247362e-6
-11.247716015765262,2.943781144750055e-6
-11.236314221169362,3.0658425752836446e-6
-11.22491242657346,3.1935033598603797e-6
-11.213510631977561,3.326958658894782e-6
-11.20210883738166,3.4664113108282078e-6
-11.19070704278576,3.612072030388441e-6
-11.179305248189861,3.7641596129056425e-6
-11.16790345359396,3.922901144374786e-6
-11.15650165899806,4.088532217684819e-6
-11.145099864402159,4.2612971547092374e-6
-11.13369806980626,4.441449234592878e-6
-11.12229627521036,4.6292509281453675e-6
-11.110894480614459,4.82497413835793e-6
-11.099492686018559,5.028900447311352e-6
-11.088090891422658,5.241321369149187e-6
-11.076689096826758,5.462538609528854e-6
-11.065287302230859,5.692864331474515e-6
-11.053885507634957,5.932621427482982e-6
-11.042483713039058,6.182143798238917e-6
-11.031081918443157,6.441776637734417e-6
-11.019680123847257,6.711876724992474e-6
-11.008278329251356,6.992812722292612e-6
-10.996876534655456,7.284965480016878e-6
-10.985474740059557,7.588728348197288e-6
-10.974072945463655,7.904507494570657e-6
-10.962671150867756,8.232722229419443e-6
-10.951269356271855,8.573805337221824e-6
-10.939867561675955,8.928203414714387e-6
-10.928465767080056,9.296377215995202e-6
-10.917063972484154,9.678802004245294e-6
-10.905662177888255,1.0075967910155685e-5
-10.894260383292353,1.0488380297255396e-5
-10.882858588696454,1.091656013388776e-5
-10.871456794100554,1.1361044371909889e-5
-10.860054999504653,1.1822386332291986e-5
-10.848653204908754,1.2301156097279786e-5
-10.837251410312852,1.2797940909395691e-5
-10.825849615716953,1.331334557702537e-5
-10.814447821121053,1.3847992886755443e-5
-10.803046026525152,1.4402524022270186e-5
-10.791644231929252,1.4977598989870076e-5
-10.780242437333351,1.557389705055586e-5
-10.768840642737452,1.619211715851764e-5
-10.757438848141552,1.6832978406121357e-5
-10.74603705354565,1.7497220475312485e-5
-10.734635258949751,1.8185604095213945e-5
-10.72323346435385,1.88989115060198e-5
-10.71183166975795,1.9637946928956988e-5
-10.700429875162051,2.040353704241965e-5
-10.68902808056615,2.119653146395034e-5
-10.67762628597025,2.2017803238051203e-5
-10.666224491374349,2.286824932982729e-5
-10.65482269677845,2.374879112419792e-5
-10.643420902182548,2.4660374930522092e-5
-10.632019107586649,2.560397249267224e-5
-10.620617312990749,2.6580581504280932e-5
-10.609215518394848,2.7591226128957126e-5
-10.597813723798948,2.8636957525531807e-5
-10.586411929203047,2.971885437785121e-5
-10.575010134607147,3.083802342925077e-5
-10.563608340011248,3.1995600021311656e-5
-10.552206545415347,3.319274863671775e-5
-10.540804750819447,3.4430663446118146e-5
-10.529402956223546,3.571056885864378e-5
-10.518001161627646,3.703372007605576e-5
-10.506599367031747,3.8401403649952846e-5
-10.495197572435846,3.981493804206329e-5
-10.483795777839946,4.127567418739202e-5
-10.472393983244045,4.278499605969797e-5
-10.460992188648145,4.434432123916025e-5
-10.449590394052246,4.595510148225476e-5
-10.438188599456344,4.761882329273447e-5
-10.426786804860445,4.9337008494404824e-5
-10.415385010264544,5.111121480459594e-5
-10.403983215668644,5.294303640834396e-5
-10.392581421072745,5.4834104532999577e-5
-10.381179626476843,5.6786088022602304e-5
-10.369777831880944,5.8800693912029744e-5
-10.358376037285042,6.087966800019055e-5
-10.346974242689143,6.302479542224203e-5
-10.335572448093243,6.523790122004748e-5
-10.324170653497342,6.752085091086017e-5
-10.312768858901443,6.987555105343038e-5
-10.301367064305541,7.230394981139372e-5
-10.289965269709642,7.480803751346065e-5
-10.278563475113742,7.738984720967283e-5
-10.267161680517841,8.005145522379901e-5
-10.255759885921941,8.27949817008033e-5
-10.24435809132604,8.562259114933395e-5
-10.23295629673014,8.853649297858824e-5
-10.22155450213424,9.153894202899426e-5
-10.21015270753834,9.463223909626957e-5
-10.19875091294244,9.781873144843432e-5
-10.187349118346539,0.00010110081333492959
-10.17594732375064,0.0001044809264875773
-10.164545529154738,0.00010796156061293081
-10.153143734558839,0.00011154525387494863
-10.14174193996294,0.0001152345933680193
-10.130340145367038,0.00011903221557935367
-10.118938350771138,0.0001229408068402901
-10.107536556175237,0.0001269631037660035
-10.096134761579338,0.00013110189368283108
-10.084732966983438,0.00013536001504275757
-10.073331172387537,0.0001397403578243554
-10.061929377791637,0.00014424586391958982
-10.050527583195736,0.0001488795275058981
-10.039125788599836,0.0001536443954027922
-10.027723994003937,0.00015854356741242578
-10.016322199408036,0.00016358019664355038
-10.004920404812136,0.00016875748981796338
-9.993518610216235,0.0001740787075590884
-9.982116815620335,0.000179547164661818
-9.970715021024436,0.0001851662303430108
-9.959313226428534,0.0001909393284720796
-9.947911431832635,0.0001968699377808171
-9.936509637236734,0.0002029615920518409
-9.925107842640834,0.00020921788028526074
-9.913706048044935,0.00021564244684236416
-9.902304253449033,0.00022223899156619768
-9.890902458853134,0.00022901126987792501
-9.879500664257233,0.00023596309284861774
-9.868098869661333,0.00024309832724570685
-9.856697075065432,0.00025042089555326295
-9.845295280469532,0.00025793477596569494
-9.833893485873633,0.000265644002354121
-9.822491691277731,0.00027355266420461734
-9.811089896681832,0.0002816649065280315
-9.79968810208593,0.00028998492974020157
-9.788286307490031,0.00029851698951257125
-9.776884512894132,0.0003072653965920727
-9.76548271829823,0.00031623451658980856
-9.75408092370233,0.0003254287697381309
-9.74267912910643,0.00033485263061521116
-9.73127733451053,0.0003445106278366088
-9.71987553991463,0.000354407343713576
-9.708473745318729,0.0003645474138767716
-9.69707195072283,0.00037493552686590275
-9.685670156126928,0.0003855764236836987
-9.674268361531029,0.0003964748973144792
-9.66286656693513,0.0004076357922063265
-9.651464772339228,0.0004190640037167394
-9.640062977743328,0.0004307644775209058
-9.628661183147427,0.00044274220898256247
-9.617259388551528,0.00045500224248662315
-9.605857593955628,0.0004675496707334838
-9.594455799359727,0.00048038963399439465
-9.583054004763827,0.0004935273193276027
-9.571652210167926,0.000506967959754941
-9.560250415572026,0.0005207168333986171
-9.548848620976127,0.0005347792625775144
-9.537446826380226,0.0005491606128634756
-9.526045031784326,0.0005638662920964474
-9.514643237188425,0.000578901749358973
-9.503241442592525,0.0005942724739093669
-9.491839647996624,0.0006099839940737774
-9.480437853400725,0.0006260418760967116
-9.469036058804825,0.000642451722950071
-9.457634264208924,0.0006592191731005395
-9.446232469613024,0.0006763498992354588
-9.434830675017123,0.0006938496069468624
-9.423428880421223,0.0007117240333740713
-9.412027085825324,0.0007299789458045576
-9.400625291229423,0.0007486201402335012
-9.389223496633523,0.0007676534398817813
-9.377821702037622,0.0007870846936730382
-9.366419907441722,0.0008069197746694667
-9.355018112845823,0.0008271645784671579
-9.343616318249921,0.0008478250215506388
-9.332214523654022,0.0008689070396075069
-9.32081272905812,0.0008904165858031436
-9.309410934462221,0.000912359629015974
-9.298009139866322,0.0009347421520337525
-9.28660734527042,0.0009575701497112911
-9.27520555067452,0.0009808496270902667
-9.26380375607862,0.0010045865974813474
-9.25240196148272,0.0010287870805095745
-9.24100016688682,0.0010534571001235083
-9.22959837229092,0.0010786026825686376
-9.21819657769502,0.0011042298543260274
-9.206794783099118,0.0011303446400167593
-9.195392988503219,0.001156953060273168
-9.18399119390732,0.0011840611295773134
-9.172589399311418,0.0012116748540682253
-9.161187604715519,0.0012398002293179948
-9.149785810119617,0.0012684432380784894
-9.138384015523718,0.0012976098479991387
-9.126982220927818,0.0013273060093170219
-9.115580426331917,0.0013575376525203926
-9.104178631736017,0.001388310685986693
-9.092776837140116,0.0014196309935962169
-9.081375042544217,0.0014515044323225963
-9.069973247948315,0.0014839368298014965
-9.058571453352416,0.0015169339818786034
-9.047169658756516,0.0015505016501384285
-9.035767864160615,0.001584645559415022
-9.024366069564715,0.001619371395286306
-9.012964274968814,0.0016546848015531503
-9.001562480372915,0.0016905913777050022
-8.990160685777015,0.0017270966763730635
-8.978758891181114,0.0017642062007731702
-8.967357096585214,0.0018019254021394327
-8.955955301989313,0.0018402596771505265
-8.944553507393413,0.0018792143653500355
-8.933151712797514,0.0019187947465628464
-8.921749918201613,0.0019590060383088735
-8.910348123605713,0.0019998533932162215
-8.898946329009812,0.00204134189643513
-8.887544534413912,0.002083476563054908
-8.876142739818013,0.002126262335525293
-8.864740945222112,0.002169704081084191
-8.853339150626212,0.0022138065891937116
-8.84193735603031,0.0022585745689861986
-8.830535561434411,0.0023040126467222754
-8.819133766838512,0.002350125363262614
-8.80773197224261,0.0023969171715557103
-8.79633017764671,0.0024443924341430185
-8.78492838305081,0.0024925554206839777
-8.77352658845491,0.002541410305502376
-8.76212479385901,0.0025909611651564516
-8.75072299926311,0.002641211976034306
-8.73932120466721,0.002692166611976853
-8.727919410071308,0.002743828841930145
-8.716517615475409,0.0027962023276291623
-8.705115820879508,0.002849290621314947
-8.693714026283608,0.0029030971634870523
-8.682312231687709,0.0029576252806932934
-8.670910437091807,0.003012878183358991
-8.659508642495908,0.003068858963657083
-8.648106847900006,0.003125570593421809
-8.636705053304107,0.003183015922107249
-8.625303258708207,0.0032411976747930777
-8.613901464112306,0.003300118450239148
-8.602499669516407,0.0033597807189910452
-8.591097874920505,0.0034201868215383378
-8.579696080324606,0.003481338966527253
-8.568294285728706,0.003543239229029999
-8.556892491132805,0.003605889548872164
-8.545490696536906,0.0036692917290200504
-8.534088901941004,0.0037334474340298476
-8.522687107345105,0.0037983581885602112
-8.511285312749205,0.003864025375949976
-8.499883518153304,0.003930450236862615
-8.488481723557404,0.0039976338679991626
-8.477079928961503,0.0040655772208811015
-8.465678134365604,0.004134281100704696
-8.454276339769704,0.004203746165268362
-8.442874545173803,0.004273972923974495
-8.431472750577903,0.004344961736907159
-8.420070955982002,0.004416712813986916
-8.408669161386102,0.004489226214204249
-8.397267366790203,0.00456250184493268
-8.385865572194302,0.004636539461322925
-8.374463777598402,0.004711338665779115
-8.3630619830025,0.004786898907518269
-8.351660188406601,0.004863219482214025
-8.3402583938107,0.004940299531725523
-8.3288565992148,0.005018138043912579
-8.317454804618901,0.005096733852537706
-8.306053010023,0.00517608563725612
-8.2946512154271,0.005256191923694103
-8.283249420831199,0.005337051083616691
-8.2718476262353,0.005418661335185128
-8.2604458316394,0.00550102074330468
-8.249044037043499,0.005584127220063281
-8.237642242447599,0.005667978525261285
-8.226240447851698,0.00575257226703297
-8.214838653255798,0.005837905902559569
-8.203436858659899,0.005923976738874541
-8.192035064063997,0.006010781933760866
-8.180633269468098,0.006098318496740489
-8.169231474872197,0.006186583290155822
-8.157829680276297,0.006275573030343452
-8.146427885680398,0.0063652842888996496
-8.135026091084496,0.006455713494037433
-8.123624296488597,0.006546856932034972
-8.112222501892695,0.006638710748775026
-8.100820707296796,0.006731270951374638
-8.089418912700896,0.006824533409904955
-8.078017118104995,0.006918493859200209
-8.066615323509096,0.007013147900755372
-8.055213528913194,0.007108491004711764
-8.043811734317295,0.007204518511929586
-8.032409939721395,0.007301225636146781
-8.021008145125494,0.007398607466222864
-8.009606350529594,0.007496658968467157
-7.998204555933694,0.00759537498904991
-7.986802761337794,0.007694750256495275
-7.975400966741893,0.0077947793842551745
-7.963999172145993,0.00789545687336212
-7.952597377550092,0.007996777115160279
-7.941195582954193,0.008098734394112997
-7.9297937883582925,0.00820132289068526
-7.918391993762392,0.008304536684299707
-7.906990199166492,0.008408369756364394
-7.895588404570591,0.008512815993370892
-7.884186609974692,0.008617869190060468
-7.872784815378791,0.008723523052657294
-7.861383020782891,0.00882977120216614
-7.849981226186991,0.008936607177733044
-7.83857943159109,0.009044024440066911
-7.82717763699519,0.009152016374919967
-7.81577584239929,0.009260576296625151
-7.80437404780339,0.009369697451688228
-7.792972253207489,0.009479373022432578
-7.781570458611589,0.009589596130694322
-7.770168664015689,0.009700359841565826
-7.758766869419789,0.00981165716718509
-7.747365074823889,0.009923481070568764
-7.735963280227988,0.010035824469486598
-7.724561485632088,0.010148680240374772
-7.7131596910361875,0.010262041222285918
-7.701757896440288,0.010375900220873216
-7.690356101844388,0.010490250012406223
-7.678954307248487,0.010605083347816024
-7.667552512652587,0.01072039295676706
-7.656150718056686,0.010836171551753246
-7.644748923460786,0.01095241183221586
-7.633347128864886,0.011069106488680524
-7.621945334268986,0.011186248206910904
-7.610543539673086,0.011303829672076465
-7.599141745077185,0.011421843572931696
-7.587739950481285,0.011540282606004319
-7.576338155885385,0.011659139479789742
-7.564936361289485,0.01177840691894943
-7.5535345666935845,0.011898077668510301
-7.542132772097684,0.012018144498062766
-7.530730977501784,0.012138600205954937
-7.519329182905884,0.01225943762347996
-7.507927388309984,0.012380649619054654
-7.496525593714083,0.012502229102386193
-7.485123799118183,0.012624169028624675
-7.4737220045222825,0.012746462402499034
-7.462320209926382,0.012869102282433644
-7.450918415330483,0.01299208178464327
-7.439516620734582,0.01311539408720385
-7.428114826138682,0.013239032434096507
-7.416713031542781,0.013362990139222656
-7.405311236946881,0.013487260590387618
-7.3939094423509815,0.013611837253250257
-7.382507647755081,0.013736713675236658
-7.371105853159181,0.013861883489415113
-7.35970405856328,0.013987340418330326
-7.34830226396738,0.014113078277794677
-7.33690046937148,0.014239090980634098
-7.32549867477558,0.0143653725403865
-7.3140968801796795,0.014491917074950596
-7.302695085583779,0.014618718810182882
-7.291293290987879,0.014745772083440911
-7.279891496391978,0.014873071347070596
-7.268489701796079,0.015000611171835583
-7.257087907200178,0.015128386250286948
-7.245686112604278,0.0152563914000708
-7.234284318008378,0.01538462156717251
-7.222882523412477,0.015513071829095218
-7.211480728816578,0.015641737397971138
-7.200078934220677,0.015770613623603602
-7.188677139624777,0.015899695996438545
-7.177275345028876,0.016028980150463234
-7.165873550432976,0.016158461866031083
-7.1544717558370765,0.016288137072610627
-7.143069961241176,0.01641800185145732
-7.131668166645276,0.016548052438206534
-7.120266372049375,0.016678285225386356
-7.108864577453475,0.01680869676484875
-7.0974627828575745,0.016939283770117688
-7.086060988261675,0.017070043118653008
-7.074659193665775,0.01720097185402863
-7.063257399069874,0.01733206718802388
-7.051855604473974,0.017463326502626827
-7.040453809878073,0.01759474735194837
-7.029052015282174,0.017726327464046007
-7.017650220686273,0.017858064742656204
-7.006248426090373,0.017989957268834417
-6.994846631494473,0.018122003302501626
-6.983444836898572,0.01825420128389648
-6.972043042302673,0.018386549834932382
-6.960641247706772,0.018519047760458134
-6.949239453110872,0.01865169404942197
-6.9378376585149715,0.01878448787593758
-6.926435863919071,0.018917428600251758
-6.915034069323171,0.01905051576961291
-6.903632274727271,0.019183749119039493
-6.892230480131371,0.019317128571988192
-6.88082868553547,0.01945065424092075
-6.86942689093957,0.019584326427769312
-6.8580250963436695,0.019718145624299403
-6.84662330174777,0.01985211251237027
-6.83522150715187,0.019986227964092138
-6.823819712555969,0.020120493041879718
-6.812417917960069,0.020254908998401863
-6.801016123364168,0.020389477276426846
-6.789614328768269,0.020524199508562865
-6.7782125341723685,0.020659077516893807
-6.766810739576468,0.020794113312509552
-6.755408944980568,0.020929309094930945
-6.744007150384667,0.021064667251429126
-6.732605355788767,0.02120019035623895
-6.721203561192867,0.021335881169666414
-6.709801766596967,0.021471742637090247
-6.6983999720010665,0.02160777788785708
-6.686998177405166,0.021743990234070514
-6.675596382809266,0.021880383169274133
-6.664194588213366,0.02201696036702804
-6.652792793617466,0.022153725679379562
-6.641390999021565,0.022290683135227682
-6.629989204425665,0.022427836938581587
-6.618587409829765,0.022565191466713486
-6.607185615233865,0.022702751268205614
-6.595783820637965,0.022840521060892065
-6.584382026042064,0.022978505729695214
-6.572980231446164,0.02311671032435731
-6.561578436850263,0.023255140057067504
-6.550176642254364,0.023393800299984654
-6.5387748476584635,0.023532696582655954
-6.527373053062563,0.023671834589332575
-6.515971258466663,0.023811220156181853
-6.504569463870762,0.02395085926839712
-6.493167669274862,0.02409075805720556
-6.481765874678962,0.024230922796774492
-6.470364080083062,0.024371359901016958
-6.458962285487162,0.024512075920296916
-6.447560490891261,0.024653077538035202
-6.436158696295361,0.02479437156721638
-6.424756901699461,0.02493596494679785
-6.413355107103561,0.025077864738021684
-6.40195331250766,0.02522007812063011
-6.39055151791176,0.025362612388985573
-6.37914972331586,0.025505474948096553
-6.36774792871996,0.025648673309549706
-6.35634613412406,0.025792215087349815
-6.344944339528159,0.025936107993668484
-6.333542544932259,0.026080359834502714
-6.3221407503363585,0.026224978505244766
-6.310738955740458,0.026369971986164344
-6.2993371611445586,0.026515348337804723
-6.287935366548658,0.026661115696293987
-6.276533571952758,0.02680728226857302
-6.265131777356857,0.026953856327541686
-6.253729982760957,0.02710084620712474
-6.242328188165057,0.027248260297259342
-6.230926393569157,0.0273961070388056
-6.219524598973257,0.027544394918382238
-6.208122804377356,0.027693132463128944
-6.196721009781456,0.027842328235397597
-6.185319215185556,0.027991990827374188
-6.173917420589656,0.028142128855633594
-6.1625156259937555,0.02829275095562933
-6.151113831397855,0.028443865776120444
-6.139712036801955,0.028595481973538
-6.128310242206054,0.028747608206293167
-6.116908447610155,0.028900253129029913
-6.105506653014254,0.029053425386824195
-6.094104858418354,0.029207133609332758
-6.0827030638224535,0.02936138640489382
-6.071301269226553,0.029516192354582634
-6.059899474630654,0.02967156000622474
-6.048497680034753,0.029827497868369544
-6.037095885438853,0.02998401440422768
-6.025694090842952,0.030141118025574606
-6.014292296247052,0.030298817086624144
-6.0028905016511525,0.030457119877874788
