Values,Density
-10.319658056259993,1.1302817901071016e-7
-10.310187801616221,1.1452886637675075e-7
-10.30071754697245,1.1788961602754444e-7
-10.291247292328679,1.231471735418932e-7
-10.28177703768491,1.3036054805071196e-7
-10.272306783041138,1.3961133096818124e-7
-10.262836528397367,1.510041589547484e-7
-10.253366273753596,1.6466731928010958e-7
-10.243896019109824,1.8075349479673708e-7
-10.234425764466053,1.9944064622023916e-7
-10.224955509822282,2.2093302762260514e-7
-10.215485255178512,2.454623328485006e-7
-10.206015000534741,2.732889677614647e-7
-10.19654474589097,3.047034442538177e-7
-10.187074491247198,3.400278902054854e-7
-10.177604236603427,3.7961767032634874e-7
-10.168133981959656,4.238631098885115e-7
-10.158663727315886,4.731913148398048e-7
-10.149193472672115,5.280680785979541e-7
-10.139723218028344,5.889998666019913e-7
-10.130252963384573,6.565358670329591e-7
-10.120782708740801,7.312700962824881e-7
-10.11131245409703,8.138435450000259e-7
-10.101842199453259,9.049463503552069e-7
-10.09237194480949,1.0053199782089628e-6
-10.082901690165718,1.1157593970967383e-6
-10.073431435521947,1.237115225052876e-6
-10.063961180878175,1.3702958279321331e-6
-10.054490926234404,1.5162693472181576e-6
-10.045020671590633,1.6760656324360523e-6
-10.035550416946862,1.8507780535081952e-6
-10.026080162303092,2.0415651642013977e-6
-10.016609907659321,2.2496521896661625e-6
-10.00713965301555,2.4763323066088333e-6
-9.997669398371778,2.722967684594055e-6
-9.988199143728007,2.99099025671129e-6
-9.978728889084236,3.281902184780819e-6
-9.969258634440466,3.5972759851628233e-6
-9.959788379796695,3.938754279652831e-6
-9.950318125152924,4.308049135814951e-6
-9.940847870509153,4.706940961466885e-6
-9.931377615865381,5.13727691680687e-6
-9.92190736122161,5.600968810128178e-6
-9.912437106577839,6.0999904419895695e-6
-9.90296685193407,6.6363743656166e-6
-9.893496597290298,7.21220803154201e-6
-9.884026342646527,7.829629287059957e-6
-9.874556088002755,8.490821204642368e-6
-9.865085833358984,9.198006213783153e-6
-9.855615578715213,9.953439517228213e-6
-9.846145324071442,1.075940177410438e-5
-9.836675069427672,1.1618191037568275e-5
-9.8272048147839,1.253211394014464e-5
-9.81773456014013,1.3503476123708814e-5
-9.808264305496358,1.4534571918099759e-5
-9.798794050852587,1.5627673277827415e-5
-9.789323796208816,1.6785017992710684e-5
-9.779853541565046,1.800879719618398e-5
-9.770383286921275,1.9301142200567507e-5
-9.760913032277504,2.0664110697843352e-5
-9.751442777633732,2.2099672371047978e-5
-9.741972522989961,2.3609693969251812e-5
-9.73250226834619,2.519592390826282e-5
-9.723032013702419,2.6859976465024894e-5
-9.71356175905865,2.8603315644451857e-5
-9.704091504414878,3.0427238802225795e-5
-9.694621249771107,3.2332860116709994e-5
-9.685150995127335,3.432109401019928e-5
-9.675680740483564,3.639263862490437e-5
-9.666210485839793,3.8547959467928605e-5
-9.656740231196022,4.078727334306392e-5
-9.647269976552252,4.311053269331899e-5
-9.63779972190848,4.551741048253177e-5
-9.62832946726471,4.800728574720636e-5
-9.618859212620938,5.057922995207846e-5
-9.609388957977167,5.323199428572227e-5
-9.599918703333396,5.596399803074921e-5
-9.590448448689626,5.877331814423126e-5
-9.580978194045855,6.165768017993636e-5
-9.571507939402084,6.461445068347421e-5
-9.562037684758312,6.76406311830649e-5
-9.552567430114541,7.073285389658929e-5
-9.54309717547077,7.388737926501861e-5
-9.533626920826999,7.710009541599984e-5
-9.524156666183229,8.036651965066637e-5
-9.514686411539458,8.368180203510711e-5
-9.505216156895687,8.704073116663942e-5
-9.495745902251915,9.043774217092591e-5
-9.486275647608144,9.386692697146114e-5
-9.476805392964373,9.732204685798142e-5
-9.467335138320601,0.00010079654736348115
-9.457864883676832,0.00010428357544286018
-9.44839462903306,0.00010777599892867334
-9.43892437438929,0.00011126642822128878
-9.429454119745518,0.00011474724015298268
-9.419983865101747,0.00011821060394608986
-9.410513610457976,0.00012164850916877162
-9.401043355814206,0.00012505279557240012
-9.391573101170435,0.0001284151846778145
-9.382102846526664,0.0001317273129610129
-9.372632591882892,0.00013498076647215293
-9.363162337239121,0.0001381671167069269
-9.35369208259535,0.00014127795753623995
-9.344221827951579,0.00014430494298555384
-9.334751573307809,0.00014723982564701817
-9.325281318664038,0.0001500744954951328
-9.315811064020266,0.00015280101887120076
-9.306340809376495,0.0001554116773947005
-9.296870554732724,0.00015789900655643896
-9.287400300088953,0.00016025583374634604
-9.277930045445181,0.00016247531546805492
-9.268459790801412,0.00016455097349720935
-9.25898953615764,0.00016647672974100247
-9.24951928151387,0.00016824693956726637
-9.240049026870098,0.00016985642337597438
-9.230578772226327,0.0001713004961998582
-9.221108517582556,0.0001725749951307677
-9.211638262938784,0.0001736763043843452
-9.202168008295015,0.00017460137783050465
-9.192697753651244,0.00017534775883501497
-9.183227499007472,0.00017591359727616752
-9.173757244363701,0.00017629766362052546
-9.16428698971993,0.00017649935996233782
-9.154816735076158,0.00017651872795349834
-9.145346480432389,0.00017635645357249284
-9.135876225788618,0.0001760138687036169
-9.126405971144846,0.00017549294952106526
-9.116935716501075,0.0001747963116932802
-9.107465461857304,0.00017392720244776075
-9.097995207213533,0.0001728894895553501
-9.088524952569761,0.0001716876473165617
-9.079054697925992,0.00017032673965029776
-9.06958444328222,0.00016881240040519246
-9.06011418863845,0.0001671508110314586
-9.050643933994678,0.00016534867576582096
-9.041173679350907,0.00016341319449758238
-9.031703424707135,0.0001613520334961642
-9.022233170063364,0.00015917329419103468
-9.012762915419595,0.00015688548020323378
-9.003292660775823,0.00015449746283601254
-8.993822406132052,0.00015201844523551888
-8.984352151488281,0.00014945792543638592
-8.97488189684451,0.00014682565850694836
-8.965411642200738,0.00014413161800975842
-8.955941387556969,0.00014138595698793242
-8.946471132913198,0.0001385989686853717
-8.937000878269426,0.00013578104720177522
-8.927530623625655,0.0001329426482757981
-8.918060368981884,0.00013009425038119915
-8.908590114338113,0.0001272463163102533
-8.899119859694341,0.00012440925540780495
-8.889649605050572,0.00012159338660711408
-8.8801793504068,0.00011880890240612528
-8.87070909576303,0.00011606583391011831
-8.861238841119258,0.00011337401705220629
-8.851768586475487,0.00011074306009106923
-8.842298331831715,0.00010818231247093114
-8.832828077187944,0.00010570083511610498
-8.823357822544175,0.00010330737222025328
-8.813887567900403,0.00010101032457711726
-8.804417313256632,9.881772449036111e-5
-8.79494705861286,9.67372122873296e-5
-8.78547680396909,9.477601445412667e-5
-8.776006549325318,9.29409233998979e-5
-8.766536294681549,9.123827885124461e-5
-8.757066040037778,8.967395087162641e-5
-8.747595785394006,8.8253324496336e-5
-8.738125530750235,8.698128596852997e-5
-8.728655276106464,8.586221056134172e-5
-8.719185021462692,8.489995196795178e-5
-8.709714766818921,8.409783324278206e-5
-8.700244512175152,8.345863927670949e-5
-8.69077425753138,8.298461079193908e-5
-8.68130400288761,8.267743984416431e-5
-8.671833748243838,8.253826682299084e-5
-8.662363493600067,8.256767894635961e-5
-8.652893238956295,8.276571024748956e-5
-8.643422984312524,8.313184305914524e-5
-8.633952729668755,8.366501100377441e-5
-8.624482475024983,8.436360350249847e-5
-8.615012220381212,8.52254718219491e-5
-8.60554196573744,8.624793667998641e-5
-8.59607171109367,8.742779743670104e-5
-8.586601456449898,8.876134289922434e-5
-8.577131201806129,9.02443637710356e-5
-8.567660947162357,9.187216677820562e-5
-8.558190692518586,9.363959050483553e-5
-8.548720437874815,9.554102296893859e-5
-8.539250183231044,9.757042096845275e-5
-8.529779928587272,9.972133122325769e-5
-8.520309673943501,0.00010198691333465626
-8.510839419299732,0.00010435996457748911
-8.50136916465596,0.00010683294653336672
-8.491898910012189,0.00010939801356412912
-8.482428655368418,0.0001120470431154319
-8.472958400724647,0.00011477166782922557
-8.463488146080875,0.00011756330943130805
-8.454017891437104,0.00012041321434747357
-8.444547636793335,0.0001233124909879764
-8.435077382149563,0.00012625214862411333
-8.425607127505792,0.0001292231377670039
-8.41613687286202,0.0001322163919417335
-8.40666661821825,0.00013522287073416614
-8.397196363574478,0.00013823360397201973
-8.387726108930707,0.0001412397368855331
-8.378255854286937,0.00014423257607764847
-8.368785599643166,0.00014720363611775075
-8.359315344999395,0.00015014468656012608
-8.349845090355624,0.00015304779917257177
-8.340374835711852,0.000155905395150268
-8.330904581068081,0.00015871029207741374
-8.321434326424312,0.00016145575038929022
-8.31196407178054,0.0001641355190805903
-8.302493817136769,0.00016674388039720003
-8.293023562492998,0.00016927569324547836
-8.283553307849226,0.00017172643504967562
-8.274083053205455,0.00017409224178691236
-8.264612798561684,0.00017636994593116934
-8.255142543917914,0.00017855711204037977
-8.245672289274143,0.0001806520697260998
-8.236202034630372,0.00018265394375349686
-8.2267317799866,0.00018456268102839783
-8.21726152534283,0.00018637907423952986
-8.207791270699058,0.00018810478193898549
-8.198321016055287,0.00018974234485811745
-8.188850761411517,0.00019129519827434938
-8.179380506767746,0.00019276768026313396
-8.169910252123975,0.0001941650356900894
-8.160439997480204,0.00019549341582024773
-8.150969742836432,0.0001967598734444638
-8.141499488192661,0.00019797235344846606
-8.132029233548892,0.00019913967877347588
-8.12255897890512,0.00020027153174565632
-8.113088724261349,0.00020137843077628823
-8.103618469617578,0.00020247170246291343
-8.094148214973806,0.00020356344914816346
-8.084677960330035,0.00020466651202048075
-8.075207705686264,0.00020579442986807042
-8.065737451042494,0.00020696139362320724
-8.056267196398723,0.00020818219686178155
-8.046796941754952,0.00020947218244637446
-8.03732668711118,0.0002108471855276524
-8.02785643246741,0.00021232347314076305
-8.018386177823638,0.00021391768065711497
-8.008915923179867,0.00021564674537198972
-7.999445668536096,0.00021752783752933963
-7.989975413892326,0.00021957828910198
-7.980505159248555,0.00022181552066324536
-7.9710349046047835,0.00022425696670034904
-7.961564649961012,0.00022691999973296385
-7.952094395317242,0.00022982185361193792
-7.942624140673471,0.0002329795463823902
-7.933153886029699,0.00023640980310271967
-7.923683631385929,0.00024012897901643654
-7.914213376742158,0.0002441529834770438
-7.904743122098386,0.00024849720502733395
-7.895272867454616,0.0002531764380340627
-7.885802612810845,0.00025820481127455724
-7.8763323581670734,0.0002635957188686694
-7.866862103523302,0.0002693617539399433
-7.857391848879532,0.0002755146453822174
-7.8479215942357605,0.00028206519809501345
-7.838451339591989,0.0002890232370378217
-7.828981084948219,0.00029639755543751445
-7.819510830304448,0.0003041958674647574
-7.810040575660676,0.00031242476567637013
-7.800570321016906,0.00032108968349679875
-7.791100066373135,0.0003301948629900022
-7.781629811729363,0.0003397433281456064
-7.772159557085592,0.00034973686387696824
-7.762689302441822,0.00036017600089813034
-7.7532190477980505,0.00037106000661770344
-7.743748793154279,0.0003823868821530064
-7.734278538510509,0.00039415336553702595
-7.724808283866738,0.0004063549411532035
-7.715338029222966,0.000418985855399067
-7.705867774579196,0.0004320391385427554
-7.696397519935425,0.0004455066326984367
-7.686927265291653,0.0004593790258096603
-7.677457010647882,0.000473645891491695
-7.667986756004112,0.0004882957345455131
-7.6585165013603405,0.0005033160419190654
-7.649046246716569,0.0005186933388541088
-7.639575992072799,0.0005344132499203997
-7.6301057374290275,0.0005504605646048455
-7.620635482785256,0.0005668193070882618
-7.611165228141486,0.0005834728098113308
-7.601694973497715,0.0006004037904006794
-7.592224718853943,0.0006175944314989988
-7.582754464210172,0.0006350264630167295
-7.573284209566402,0.0006526812463016965
-7.56381395492263,0.0006705398597033115
-7.554343700278859,0.0006885831849919328
-7.544873445635089,0.0007067919940818186
-7.5354031909913175,0.0007251470354983393
-7.525932936347546,0.0007436291200244929
-7.516462681703775,0.000762219204962486
-7.506992427060005,0.0007808984764499406
-7.497522172416233,0.0007996484292785329
-7.488051917772462,0.0008184509436762535
-7.478581663128692,0.0008372883585314825
-7.46911140848492,0.0008561435405592815
-7.459641153841149,0.0008749999489363353
-7.450170899197379,0.0008938416949621983
-7.4407006445536075,0.0009126535963383565
-7.431230389909836,0.0009314212256963939
-7.421760135266065,0.0009501309530481825
-7.4122898806222945,0.0009687699818777453
-7.402819625978523,0.0009873263786426
-7.393349371334752,0.0010057890955054855
-7.383879116690982,0.0010241479861701815
-7.37440886204721,0.0010423938147526984
-7.364938607403439,0.0010605182576757279
-7.355468352759669,0.0010785138986334174
-7.345998098115897,0.0010963742167326967
-7.336527843472126,0.0011140935679761809
-7.327057588828355,0.0011316671603105264
-7.3175873341845845,0.0011490910225211808
-7.308117079540813,0.0011663619673102713
-7.298646824897042,0.0011834775489476673
-7.289176570253272,0.0012004360159363833
-7.2797063156095,0.0012172362591796916
-7.270236060965729,0.0012338777561821997
-7.260765806321959,0.001250360511855328
-7.251295551678187,0.0012666849965326174
-7.241825297034416,0.0012828520818292267
-7.232355042390645,0.001298862975004535
-7.2228847877468745,0.0013147191525039337
-7.213414533103103,0.0013304222933684176
-7.203944278459332,0.0013459742132064592
-7.194474023815562,0.0013613767994208013
-7.18500376917179,0.0013766319483772306
-7.175533514528019,0.0013917415051870278
-7.166063259884249,0.001406707206755401
-7.156593005240477,0.0014215306287212945
-7.147122750596706,0.00143621313688138
-7.137652495952935,0.0014507558436514453
-7.1281822413091644,0.0014651595700747137
-7.118711986665393,0.0014794248138366092
-7.109241732021622,0.0014935517236901556
-7.0997714773778515,0.001507540080638265
-7.09030122273408,0.001521389286154945
-7.080830968090309,0.0015350983576620028
-7.071360713446539,0.0015486659314083197
-7.061890458802767,0.001562090272828007
-7.052420204158996,0.0015753692943807828
-7.042949949515225,0.0015885005808053349
-7.033479694871454,0.001601481421642183
-7.024009440227683,0.0016143088508112358
-7.014539185583912,0.001626979692957187
-7.0050689309401415,0.0016394906162067327
-6.99559867629637,0.0016518381909159758
-6.986128421652599,0.0016640189539231087
-6.976658167008829,0.0016760294777622732
-6.967187912365057,0.0016878664442409909
-6.957717657721286,0.0016995267217342035
-6.948247403077515,0.0017110074455045296
-6.938777148433744,0.0017223061003213622
-6.929306893789973,0.001733420604621113
-6.919836639146202,0.0017443493954263384
-6.9103663845024315,0.0017550915132254485
-6.90089612985866,0.001765646686005217
-6.891425875214889,0.0017760154116262718
-6.8819556205711185,0.0017861990377369026
-6.872485365927347,0.0017961998384343272
-6.863015111283576,0.0018060210869020685
-6.853544856639805,0.0018156671232798603
-6.844074601996034,0.001825143417057029
-6.834604347352263,0.0018344566233214248
-6.825134092708492,0.0018436146322431558
-6.815663838064721,0.001852626611225535
-6.80619358342095,0.0018615030392150952
-6.796723328777179,0.0018702557327247935
-6.7872530741334085,0.0018788978631936928
-6.777782819489637,0.0018874439653768817
-6.768312564845866,0.0018959099365346037
-6.758842310202095,0.0019043130262667626
-6.749372055558324,0.0019126718169166952
-6.739901800914553,0.0019210061945493535
-6.730431546270782,0.00192933731058795
-6.720961291627011,0.0019376875342731366
-6.71149103698324,0.0019460803961883558
-6.702020782339469,0.0019545405231699764
-6.6925505276956985,0.001963093564997676
-6.683080273051927,0.0019717661133301853
-6.673610018408156,0.001980585613419946
-6.664139763764385,0.0019895802692042157
-6.654669509120614,0.0019987789424280823
-6.645199254476843,0.002008211046509
-6.635728999833072,0.00201790643589996
-6.626258745189301,0.0020278952917502273
-6.61678849054553,0.0020382080046975042
-6.607318235901759,0.0020488750556539896
-6.5978479812579875,0.00205992689547031
-6.588377726614217,0.0020713938243748786
-6.578907471970446,0.0020833058720939332
-6.569437217326675,0.0020956926795561654
-6.559966962682904,0.002108583383078082
-6.550496708039133,0.002122006501911255
-6.541026453395362,0.0021359898300091313
-6.531556198751591,0.0021505603328419243
-6.52208594410782,0.0021657440500507334
-6.512615689464049,0.0021815660046890176
-6.5031454348202775,0.0021980501197491837
-6.493675180176507,0.0022152191426165566
-6.484204925532736,0.0022330945780308564
-6.474734670888965,0.0022516966300689797
-6.465264416245194,0.0022710441535907563
-6.455794161601423,0.0022911546155141155
-6.446323906957652,0.0023120440662061743
-6.436853652313881,0.002333727121194051
-6.42738339767011,0.0023562169533144148
-6.417913143026339,0.0023795252953338368
-6.4084428883825675,0.002403662452983098
-6.398972633738797,0.002428637328260712
-6.389502379095026,0.0024544574527715426
-6.380032124451255,0.0024811290307791313
-6.370561869807484,0.002508656991563464
-6.361091615163713,0.0025370450505925474
-6.351621360519942,0.002566295778934056
-6.342151105876171,0.002596410680256884
-6.3326808512324,0.002627390274697895
-6.323210596588629,0.0026592341888022715
-6.3137403419448574,0.0026919412506820947
-6.304270087301087,0.0027255095894814603
-6.294799832657316,0.0027599367381876665
-6.2853295780135445,0.00279521973878453
-6.275859323369774,0.0028313552487102467
-6.266389068726003,0.0028683396475559612
-6.256918814082232,0.002906169142923508
-6.247448559438461,0.0029448398743532264
-6.23797830479469,0.0029843480142333284
-6.228508050150919,0.0030246898646133632
-6.219037795507147,0.003065861948864686
-6.209567540863377,0.0031078610971614386
-6.200097286219606,0.003150684524796001
-6.1906270315758345,0.0031943299023921845
-6.181156776932064,0.003238795417140455
-6.171686522288293,0.003284079824246937
-6.162216267644522,0.003330182487867689
-6.152746013000751,0.0033771034108853928
-6.14327575835698,0.003424843252980989
-6.133805503713209,0.0034734033365548464
-6.124335249069437,0.0035227856401621026
-6.114864994425667,0.0035729927792407523
-6.105394739781896,0.003624027974033302
-6.0959244851381245,0.003675895004725825
-6.086454230494354,0.0037285981539582768
-6.076983975850583,0.0037821421369885347
-6.0675137212068115,0.0038365320199257365
-6.058043466563041,0.0038917731265788284
-6.04857321191927,0.003947870934597571
-6.039102957275499,0.004004830961710183
-6.029632702631727,0.004062658642986331
-6.020162447987957,0.004121359200173944
-6.010692193344186,0.004180937504269967
-6.001221938700414,0.004241397932591844
-5.991751684056644,0.00430274422171296
-5.982281429412873,0.004364979317711189
-5.9728111747691015,0.004428105225257387
-5.963340920125331,0.0044921228571324235
-5.95387066548156,0.0045570318858135575
-5.944400410837789,0.004622830598806733
-5.934930156194017,0.004689515759423837
-5.925459901550247,0.0047570824747101
-5.915989646906476,0.0048255240722171085
-5.906519392262704,0.004894831987291287
-5.897049137618934,0.004964995662504749
-5.887578882975163,0.005036002460795379
-5.8781086283313915,0.005107837593807202
-5.868638373687621,0.0051804840668278375
-5.85916811904385,0.005253922641611609
-5.8496978644000786,0.005328131818250462
-5.840227609756307,0.005403087837114882
-5.830757355112537,0.00547876470173243
-5.821287100468766,0.005555134223303074
-5.811816845824994,0.005632166087371205
-5.802346591181224,0.005709827942983517
-5.792876336537453,0.005788085514461213
-5.783406081893681,0.005866902735708775
-5.773935827249911,0.0059462419067680084
-5.76446557260614,0.00602606387210796
-5.7549953179623685,0.006106328219923448
-5.745525063318597,0.006186993501494974
-5.736054808674827,0.006268017469445721
-5.726584554031056,0.006349357333518787
-5.717114299387284,0.006430970032291337
-5.707644044743514,0.006512812519044299
-5.698173790099743,0.006594842059819132
