Values,Density
-10.34944082595947,1.0669110761529765e-7
-10.339369393071198,1.0851344109386041e-7
-10.32929796018293,1.1218052586858818e-7
-10.319226527294658,1.1773772211343125e-7
-10.309155094406387,1.2525345094438478e-7
-10.299083661518116,1.348196537742652e-7
-10.289012228629847,1.465524043647859e-7
-10.278940795741576,1.6059267071710792e-7
-10.268869362853305,1.7710722520491995e-7
-10.258797929965034,1.962897018953358e-7
-10.248726497076765,2.1836179597833905e-7
-10.238655064188494,2.4357460445822987e-7
-10.228583631300223,2.722101017371692e-7
-10.218512198411952,3.0458274691280707e-7
-10.208440765523683,3.4104121605926796e-7
-10.198369332635412,3.8197025327424416e-7
-10.188297899747141,4.2779263273451384e-7
-10.17822646685887,4.789712228780996e-7
-10.168155033970601,5.36011142401871e-7
-10.15808360108233,5.994619974580839e-7
-10.14801216819406,6.699201859639015e-7
-10.137940735305788,7.480312555763202e-7
-10.127869302417519,8.344922991510018e-7
-10.117797869529248,9.300543692969399e-7
-10.107726436640977,1.0355248937221617e-6
-10.097655003752706,1.15177006868028e-6
-10.087583570864437,1.2797172084938468e-6
-10.077512137976166,1.4203570252446784e-6
-10.067440705087895,1.574745812207845e-6
-10.057369272199624,1.7440075015529022e-6
-10.047297839311355,1.9293355665167544e-6
-10.037226406423084,2.1319947341447154e-6
-10.027154973534813,2.3533224761581586e-6
-10.017083540646542,2.594730240395248e-6
-10.007012107758273,2.8577043875143977e-6
-9.996940674870002,3.1438067925634687e-6
-9.986869241981731,3.454675074468451e-6
-9.97679780909346,3.79202241073865e-6
-9.966726376205191,4.157636899353428e-6
-9.95665494331692,4.5533804256376285e-6
-9.946583510428649,4.981186994029892e-6
-9.936512077540378,5.443060486157365e-6
-9.926440644652109,5.941071805006578e-6
-9.916369211763838,6.477355369985567e-6
-9.906297778875567,7.054104926284286e-6
-9.896226345987296,7.673568637871632e-6
-9.886154913099027,8.338043434027737e-6
-9.876083480210756,9.049868584015816e-6
-9.866012047322485,9.811418479283756e-6
-9.855940614434214,1.0625094606440087e-5
-9.845869181545945,1.1493316700471627e-5
-9.835797748657674,1.2418513073273471e-5
-9.825726315769403,1.3403110119086748e-5
-9.815654882881132,1.4449521006183871e-5
-9.805583449992863,1.5560133570920783e-5
-9.795512017104592,1.673729743871359e-5
-9.785440584216321,1.7983310405457476e-5
-9.77536915132805,1.9300404121105376e-5
-9.765297718439781,2.069072912636808e-5
-9.75522628555151,2.2156339303522517e-5
-9.745154852663239,2.3699175811364888e-5
-9.735083419774968,2.5321050583579016e-5
-9.725011986886699,2.7023629480513872e-5
-9.714940553998428,2.880841519238217e-5
-9.704869121110157,3.067673000184358e-5
-9.694797688221886,3.262969852310953e-5
-9.684726255333617,3.466823054146945e-5
-9.674654822445346,3.679300408641938e-5
-9.664583389557075,3.900444887744176e-5
-9.654511956668804,4.1302730288193205e-5
-9.644440523780535,4.36877339792148e-5
-9.634369090892264,4.615905135393547e-5
-9.624297658003993,4.871596599472644e-5
-9.614226225115722,5.1357441238642984e-5
-9.604154792227453,5.408210904968508e-5
-9.594083359339182,5.688826034686749e-5
-9.584011926450911,5.9773836940254024e-5
-9.57394049356264,6.273642522542072e-5
-9.56386906067437,6.577325177888494e-5
-9.5537976277861,6.88811809893405e-5
-9.543726194897829,7.205671484999607e-5
-9.533654762009558,7.52959950250107e-5
-9.523583329121289,7.859480729064273e-5
-9.513511896233018,8.194858843693469e-5
-9.503440463344747,8.535243569795029e-5
-9.493369030456476,8.880111876309257e-5
-9.483297597568207,9.228909440039002e-5
-9.473226164679936,9.581052370432035e-5
-9.463154731791665,9.935929195765188e-5
-9.453083298903394,0.00010292903107535223
-9.443011866015125,0.00010651314457558927
-9.432940433126854,0.00011010483499884934
-9.422869000238583,0.00011369713367267824
-9.412797567350312,0.00011728293269617704
-9.402726134462043,0.00012085501899383733
-9.392654701573772,0.00012440611026643712
-9.3825832686855,0.00012792889264335878
-9.37251183579723,0.00013141605982002532
-9.36244040290896,0.00013486035344358266
-9.35236897002069,0.00013825460449172055
-9.342297537132419,0.00014159177537253478
-9.332226104244148,0.00014486500245799788
-9.322154671355879,0.00014806763875235222
-9.312083238467608,0.00015119329638435455
-9.302011805579337,0.00015423588860627013
-9.291940372691066,0.00015718967097730178
-9.281868939802797,0.00016004928140575525
-9.271797506914526,0.0001628097787267956
-9.261726074026255,0.00016546667949532932
-9.251654641137984,0.0001680159926811045
-9.241583208249715,0.00017045425196255543
-9.231511775361444,0.00017277854532943109
-9.221440342473173,0.0001749865417205662
-9.211368909584902,0.00017707651444077033
-9.201297476696633,0.00017904736112458585
-9.191226043808362,0.0001808986200367204
-9.18115461092009,0.00018263048252747764
-9.17108317803182,0.00018424380148921934
-9.16101174514355,0.00018574009569147232
-9.15094031225528,0.00018712154990372168
-9.140868879367009,0.00018839101075047646
-9.130797446478738,0.00018955197827550015
-9.120726013590469,0.00019060859323035383
-9.110654580702198,0.00019156562013600623
-9.100583147813927,0.00019242842620326855
-9.090511714925656,0.00019320295623329042
-9.080440282037387,0.00019389570365298953
-9.070368849149116,0.0001945136778756483
-9.060297416260845,0.00019506436820729972
-9.050225983372574,0.00019555570455144543
-9.040154550484305,0.0001959960151915693
-9.030083117596034,0.00019639398195814717
-9.020011684707763,0.00019675859310916638
-9.009940251819492,0.00019709909427354216
-8.999868818931223,0.00019742493782510997
-8.989797386042952,0.0001977457310667818
-8.97972595315468,0.00019807118361652495
-8.96965452026641,0.00019841105439339247
-8.95958308737814,0.00019877509860373194
-8.94951165448987,0.00019917301512871206
-8.939440221601599,0.00019961439470929983
-8.929368788713328,0.00020010866931684506
-8.919297355825059,0.00020066506308625935
-8.909225922936788,0.0002012925451738267
-8.899154490048517,0.0002019997848833532
-8.889083057160246,0.00020279510938329363
-8.879011624271977,0.00020368646431294987
-8.868940191383706,0.00020468137755002593
-8.858868758495435,0.0002057869263812264
-8.848797325607164,0.00020700970828793804
-8.838725892718895,0.0002083558155255346
-8.828654459830624,0.00020983081364067332
-8.818583026942353,0.00021143972403603675
-8.808511594054082,0.00021318701065578018
-8.798440161165813,0.00021507657082980684
-8.788368728277542,0.00021711173027768628
-8.77829729538927,0.00021929524223866098
-8.768225862501,0.00022162929065900824
-8.75815442961273,0.0002241154973342714
-8.74808299672446,0.00022675493287237052
-8.738011563836189,0.000229548131312627
-8.727940130947918,0.00023249510820798
-8.717868698059648,0.00023559538195120798
-8.707797265171378,0.00023884799810295568
-8.697725832283107,0.00024225155645836048
-8.687654399394836,0.00024580424057078776
-8.677582966506566,0.00024950384943724785
-8.667511533618296,0.00025334783103695205
-8.657440100730025,0.0002573333174065856
-8.647368667841754,0.0002614571609301942
-8.637297234953484,0.00026571597151793004
-8.627225802065214,0.0002701061543501828
-8.617154369176943,0.00027462394786559405
-8.607082936288672,0.0002792654616783942
-8.597011503400402,0.00028402671411902926
-8.586940070512131,0.00028890366910433365
-8.57686863762386,0.00029389227205589737
-8.56679720473559,0.0002989884846026046
-8.55672577184732,0.00030418831781951934
-8.54665433895905,0.00030948786377590215
-8.536582906070779,0.0003148833251845843
-8.526511473182508,0.00032037104296749573
-8.516440040294238,0.0003259475215736593
-8.506368607405967,0.0003316094519100598
-8.496297174517697,0.00033735373176792087
-8.486225741629426,0.00034317748365121636
-8.476154308741156,0.00034907806993682636
-8.466082875852885,0.0003550531053184529
-8.456011442964614,0.0003611004665083975
-8.445940010076344,0.00036721829919365324
-8.435868577188074,0.00037340502226092774
-8.425797144299803,0.00037965932932672655
-8.415725711411532,0.00038598018762519334
-8.405654278523262,0.0003923668343237207
-8.395582845634992,0.0003988187703516154
-8.385511412746721,0.00040533575184117194
-8.37543997985845,0.00041191777929281423
-8.36536854697018,0.0004185650845880493
-8.35529711408191,0.00042527811598275364
-8.34522568119364,0.0004320575212228162
-8.335154248305368,0.0004389041289308872
-8.325082815417097,0.00044581892842015386
-8.315011382528828,0.0004528030480943357
-8.304939949640557,0.0004598577325999713
-8.294868516752286,0.0004669843188975908
-8.284797083864015,0.00047418421142320175
-8.274725650975746,0.00048145885651161655
-8.264654218087475,0.0004888097162562121
-8.254582785199204,0.0004962382419785791
-8.244511352310933,0.0005037458474841973
-8.234439919422664,0.0005113338822783173
-8.224368486534393,0.0005190036049174977
-8.214297053646122,0.0005267561566714204
-8.204225620757851,0.0005345925356688395
-8.194154187869582,0.0005425135717008617
-8.184082754981311,0.0005505199018539415
-8.17401132209304,0.0005586119471433695
-8.16393988920477,0.0005667898903163483
-8.1538684563165,0.0005750536549928333
-8.14379702342823,0.0005834028863080879
-8.133725590539958,0.0005918369332202061
-8.123654157651687,0.0006003548326406066
-8.113582724763418,0.0006089552955422569
-8.103511291875147,0.0006176366951952065
-8.093439858986876,0.0006263970576729389
-8.083368426098605,0.0006352340547662517
-8.073296993210336,0.0006441449994334704
-8.063225560322065,0.0006531268439063341
-8.053154127433794,0.0006621761805604741
-8.043082694545523,0.0006712892456479324
-8.033011261657254,0.0006804619259755378
-8.022939828768983,0.000689689768598824
-8.012868395880712,0.0006989679935847724
-8.002796962992441,0.0007082915098803465
-7.992725530104171,0.000717654934303885
-7.982654097215901,0.0007270526136579679
-7.97258266432763,0.0007364786499405116
-7.96251123143936,0.0007459269286097595
-7.952439798551089,0.0007553911498349875
-7.942368365662819,0.0007648648626427572
-7.932296932774548,0.0007743415018434405
-7.922225499886278,0.0007838144275991183
-7.912154066998007,0.0007932769674698168
-7.902082634109737,0.0008027224607506499
-7.892011201221466,0.0008121443048892743
-7.881939768333196,0.0008215360037496545
-7.871868335444925,0.0008308912174668686
-7.861796902556655,0.000840203813616193
-7.851725469668384,0.0008494679194009829
-7.841654036780114,0.0008586779745456286
-7.831582603891843,0.0008678287845650225
-7.821511171003573,0.0008769155740670732
-7.811439738115302,0.0008859340397345235
-7.801368305227032,0.0008948804026233147
-7.791296872338761,0.0009037514594070241
-7.781225439450491,0.0009125446321957865
-7.77115400656222,0.000921258016554585
-7.76108257367395,0.0009298904273496172
-7.751011140785679,0.0009384414420555579
-7.740939707897409,0.000946911441163976
-7.730868275009138,0.0009553016453438877
-7.720796842120868,0.0009636141490188797
-7.710725409232597,0.0009718519500402305
-7.700653976344327,0.0009800189751546034
-7.690582543456056,0.000988120100984549
-7.680511110567786,0.0009961611702645492
-7.670439677679515,0.001004149003097769
-7.660368244791245,0.0010120914030279295
-7.650296811902974,0.001019997157747159
-7.640225379014704,0.0010278760342908118
-7.630153946126433,0.0010357387686014312
-7.620082513238163,0.0010435970493753298
-7.610011080349892,0.0010514634961372262
-7.599939647461622,0.0010593516315222742
-7.589868214573351,0.001067275847776192
-7.579796781685081,0.0010752513675193354
-7.56972534879681,0.0010832941988508727
-7.55965391590854,0.0010914210849035765
-7.549582483020269,0.0010996494479909998
-7.539511050131999,0.0011079973285187444
-7.529439617243728,0.0011164833188635277
-7.519368184355458,0.0011251264924509036
-7.509296751467187,0.0011339463282918336
-7.499225318578917,0.0011429626312637671
-7.489153885690646,0.001152195448447513
-7.479082452802376,0.0011616649818550371
-7.469011019914105,0.001171391497904714
-7.458939587025835,0.0011813952340218366
-7.448868154137564,0.0011916963027604837
-7.438796721249294,0.0012023145938600847
-7.428725288361023,0.0012132696746657036
-7.418653855472753,0.0012245806893543387
-7.408582422584482,0.0012362662574216332
-7.398510989696212,0.0012483443718936502
-7.388439556807941,0.0012608322977363945
-7.378368123919671,0.0012737464709429225
-7.3682966910314,0.0012871023987817449
-7.35822525814313,0.001300914561694661
-7.348153825254859,0.0013151963173319927
-7.338082392366589,0.001329959807213686
-7.328010959478318,0.0013452158665020247
-7.317939526590048,0.0013609739373682869
-7.307868093701777,0.001377241986428624
-7.297796660813507,0.0013940264267186502
-7.287725227925236,0.0014113320446654748
-7.277653795036966,0.0014291619325058071
-7.267582362148695,0.0014475174265853998
-7.257510929260425,0.0014663980519611214
-7.247439496372154,0.001485801473710103
-7.237368063483884,0.00150572345533286
-7.227296630595613,0.0015261578246171153
-7.217225197707343,0.0015470964473080421
-7.207153764819072,0.001568529208906824
-7.197082331930802,0.0015904440048947043
-7.187010899042531,0.0016128267396533476
-7.176939466154261,0.001635661334322947
-7.16686803326599,0.0016589297438103058
-7.15679660037772,0.0016826119831270846
-7.146725167489449,0.0017066861632037038
-7.136653734601179,0.0017311285362913756
-7.126582301712908,0.0017559135510253924
-7.116510868824638,0.0017810139171859367
-7.106439435936367,0.0018064006801524158
-7.096368003048097,0.0018320433050045292
-7.086296570159826,0.001857909770181312
-7.076225137271556,0.0018839666705646272
-7.066153704383285,0.00191017932980663
-7.056082271495015,0.0019365119216747835
-7.046010838606744,0.0019629276001383172
-7.035939405718474,0.0019893886378717415
-7.025867972830203,0.0020158565727988512
-7.015796539941933,0.002042292362251587
-7.005725107053662,0.0020686565442642932
-6.995653674165392,0.002094909405472879
-6.985582241277121,0.0021210111550356943
-6.975510808388851,0.002146922103941177
-6.96543937550058,0.0021726028490141893
-6.95536794261231,0.002198014460884408
-6.945296509724039,0.0022231186751272953
-6.935225076835769,0.002247878085742454
-6.925153643947498,0.002272256340085719
-6.915082211059228,0.002296218334328652
-6.905010778170957,0.002319730408476871
-6.894939345282687,0.0023427605399413296
-6.884867912394416,0.0023652785346221263
-6.874796479506146,0.0023872562144353357
-6.864725046617875,0.0024086676001879347
-6.854653613729605,0.0024294890886867914
-6.844582180841334,0.002449699622954567
-6.834510747953064,0.0024692808544183103
-6.824439315064793,0.002488217295936391
-6.814367882176523,0.0025064964645381063
-6.804296449288252,0.0025241090127645933
-6.794225016399982,0.0025410488475247905
-6.784153583511711,0.002557313235412376
-6.774082150623441,0.002572902893471277
-6.76401071773517,0.002587822064448492
-6.7539392848469,0.0026020785756332783
-6.743867851958629,0.0026156838804510113
-6.733796419070359,0.002628653082060058
-6.723724986182088,0.0026410049382876075
-6.713653553293818,0.0026527618473382504
-6.703582120405547,0.0026639498138152167
-6.693510687517277,0.002674598394708938
-6.683439254629006,0.002684740625129384
-6.673367821740736,0.0026944129236881474
-6.663296388852465,0.0027036549775716553
-6.653224955964195,0.0027125096074882976
-6.643153523075924,0.002721022612816924
-6.633082090187654,0.0027292425974333586
-6.623010657299383,0.0027372207768424795
-6.612939224411113,0.002745010767395099
-6.602867791522842,0.0027526683585201326
-6.592796358634572,0.002760251269052676
-6.582724925746301,0.00276781888888455
-6.572653492858031,0.002775432007305805
-6.56258205996976,0.00278315252954165
-6.55251062708149,0.00279104318311688
-6.542439194193219,0.002799167215799283
-6.532367761304949,0.0028075880869820463
-6.522296328416678,0.0028163691544611123
-6.512224895528408,0.0028255733586491933
-6.502153462640137,0.002835262906334105
-6.492082029751867,0.002845498956146157
-6.482010596863596,0.0028563413079343977
-6.471939163975326,0.002867848098272278
-6.461867731087055,0.0028800755043153587
-6.451796298198785,0.0028930774582163485
-6.441724865310514,0.0029069053742672734
-6.431653432422244,0.0029216078908837085
-6.421581999533973,0.0029372306294711678
-6.411510566645703,0.0029538159721205727
-6.401439133757432,0.0029714028599672542
-6.391367700869162,0.002990026613917807
-6.381296267980891,0.003009718779300631
-6.371224835092621,0.003030506995831457
-6.36115340220435,0.0030524148941062515
-6.35108196931608,0.0030754620196377955
-6.341010536427809,0.003099663785247903
-6.330939103539539,0.0031250314524080246
-6.320867670651268,0.0031515721418943618
-6.310796237762998,0.003179288873890548
-6.300724804874727,0.0032081806374297506
-6.290653371986457,0.0032382424888282415
-6.280581939098186,0.0032694656785162654
-6.270510506209916,0.003301837805432284
-6.260439073321645,0.0033353429979074856
-6.250367640433375,0.0033699621197350073
-6.240296207545104,0.003405672999894104
-6.2302247746568336,0.0034424506841862017
-6.2201533417685635,0.003480267706838145
-6.2100819088802925,0.0035190943799414285
-6.2000104759920225,0.003558899098426493
-6.1899390431037515,0.003599648658120129
-6.1798676102154815,0.003641308584301505
-6.1697961773272105,0.0036838434680641187
-6.1597247444389405,0.00372721730770324
-6.1496533115506695,0.0037713938522857477
-6.1395818786623995,0.003816336944521635
-6.1295104457741285,0.0038620108600439873
-6.1194390128858585,0.003908380640217141
-6.1093675799975875,0.003955412415633141
-6.0992961471093174,0.004003073717521137
-6.0892247142210465,0.004051333774385792
-6.079153281332776,0.004100163791306207
-6.0690818484445055,0.004149537209467117
-6.059010415556235,0.004199429943655943
-6.0489389826679645,0.004249820595644811
-6.038867549779694,0.004300690641579374
-6.0287961168914235,0.0043520245917199815
-6.018724684003153,0.004403810121117992
-6.0086532511148825,0.004456038170064411
-5.998581818226612,0.004508703013410521
-5.9885103853383415,0.004561802298135698
-5.978438952450071,0.004615337048817508
-5.9683675195618004,0.004669311640945004
-5.95829608667353,0.004723733742301747
-5.948224653785259,0.004778614222932583
-5.938153220896989,0.0048339670344891405
-5.928081788008718,0.004889809060025787
-5.918010355120448,0.004946159935584984
-5.907938922232177,0.0050030418451668555
-5.897867489343907,0.005060479290920985
-5.887796056455636,0.005118498840624158
-5.877724623567366,0.005177128854717233
-5.867653190679095,0.005236399195363586
-5.857581757790825,0.005296340920157665
-5.847510324902554,0.005356985963257933
-5.837438892014284,0.005418366806837688
-5.827367459126013,0.0054805161458413975
-5.817296026237743,0.005543466549102961
-5.807224593349472,0.005607250119922697
-5.797153160461202,0.005671898159213935
-5.787081727572931,0.0057374408343167154
-5.777010294684661,0.0058039068565343644
-5.76693886179639,0.005871323170381348
-5.75686742890812,0.005939714657435785
-5.746795996019849,0.006009103857571061
-5.736724563131579,0.006079510710195079
-5.726653130243308,0.006150952317959113
-5.716581697355038,0.0062234427352081
-5.706510264466767,0.0062969927832337135
-5.696438831578497,0.0063716098941645725
-5.686367398690226,0.006447297985081742
-5.676295965801956,0.006524057363688423
-5.666224532913685,0.006601884666592044
-5.656153100025415,0.006680772830973557
-5.646081667137144,0.006760711100130493
-5.636010234248874,0.006841685063084966
-5.625938801360603,0.006923676728149768
-5.615867368472333,0.007006664630048374
-5.605795935584062,0.007090623969887668
-5.595724502695792,0.007175526786991217
-5.585653069807521,0.00726134216131597
-5.575581636919251,0.0073480364448998605
-5.56551020403098,0.007435573520524321
-5.55543877114271,0.007523915085525391
-5.545367338254439,0.007613020958453424
-5.535295905366169,0.007702849406065377
-5.525224472477898,0.007793357487937715
-5.515153039589628,0.007884501415813466
-5.505081606701357,0.00797623692464591
-5.495010173813087,0.00806851965217501
-5.484938740924816,0.008161305523772401
-5.474867308036546,0.008254551139217057
-5.464795875148275,0.008348214158018648
-5.454724442260005,0.008442253679888965
-5.444653009371734,0.008536630616973328
-5.434581576483464,0.008631308054496415
-5.424510143595193,0.008726251596547106
