Values,Density
-10.007092896360437,1.0285692852995965e-7
-9.996506602657117,1.0464937200138635e-7
-9.985920308953796,1.0820829005053767e-7
-9.975334015250477,1.1357819681978576e-7
-9.964747721547157,1.208256279888742e-7
-9.954161427843836,1.3003961177315837e-7
-9.943575134140517,1.4133228734558578e-7
-9.932988840437197,1.5483966986362674e-7
-9.922402546733876,1.7072256140726605e-7
-9.911816253030556,1.8916760673171051e-7
-9.901229959327235,2.10388491753144e-7
-9.890643665623916,2.3462728292178436e-7
-9.880057371920596,2.6215590473444017e-7
-9.869471078217275,2.9327775240284293e-7
-9.858884784513956,3.283294349176735e-7
-9.848298490810636,3.676826450249582e-7
-9.837712197107315,4.1174614968941814e-7
-9.827125903403996,4.609678949663021e-7
-9.816539609700676,5.158372177321846e-7
-9.805953315997355,5.768871559064248e-7
-9.795367022294036,6.446968473794445e-7
-9.784780728590716,7.19894006490085e-7
-9.774194434887395,8.031574661171437e-7
-9.763608141184076,8.952197713268939e-7
-9.753021847480756,9.96869809727352e-7
-9.742435553777435,1.1089554614596153e-6
-9.731849260074116,1.232386250826778e-6
-9.721262966370794,1.3681359797013126e-6
-9.710676672667475,1.5172453209227887e-6
-9.700090378964155,1.680824349148402e-6
-9.689504085260834,1.8600549839820069e-6
-9.678917791557515,2.0561933196383553e-6
-9.668331497854195,2.27057181293594e-6
-9.657745204150874,2.5046013014959692e-6
-9.647158910447555,2.7597728208383215e-6
-9.636572616744235,3.0376591898311975e-6
-9.625986323040914,3.3399163317290176e-6
-9.615400029337595,3.6682842978023877e-6
-9.604813735634275,4.024587960222217e-6
-9.594227441930954,4.410737339886027e-6
-9.583641148227635,4.828727535891031e-6
-9.573054854524315,5.280638222999491e-6
-9.562468560820994,5.768632684076749e-6
-9.551882267117675,6.294956345982011e-6
-9.541295973414353,6.86193478891331e-6
-9.530709679711034,7.471971199748441e-6
-9.520123386007715,8.127543244239657e-6
-9.509537092304393,8.831199333547875e-6
-9.498950798601074,9.585554265389984e-6
-9.488364504897755,1.0393284222713108e-5
-9.477778211194433,1.1257121116231388e-5
-9.467191917491114,1.2179846264013042e-5
-9.456605623787794,1.3164283402994185e-5
-9.446019330084473,1.421329103506834e-5
-9.435433036381154,1.5329754115047008e-5
-9.424846742677834,1.6516575093569394e-5
-9.414260448974513,1.7776664335249735e-5
-9.403674155271194,1.9112929938181096e-5
-9.393087861567874,2.0528266988086713e-5
-9.382501567864553,2.202554628759866e-5
-9.371915274161234,2.3607602607410294e-5
-9.361328980457913,2.5277222514750314e-5
-9.350742686754593,2.703713184001172e-5
-9.340156393051274,2.8889982850523882e-5
-9.329570099347952,3.083834120651274e-5
-9.318983805644633,3.288467278160512e-5
-9.308397511941314,3.5031330435572605e-5
-9.297811218237992,3.728054083284617e-5
-9.287224924534673,3.963439140608309e-5
-9.276638630831354,4.209481756770571e-5
-9.266052337128032,4.466359027631775e-5
-9.255466043424713,4.73423040686545e-5
-9.244879749721393,5.013236566839101e-5
-9.234293456018072,5.303498328572756e-5
-9.223707162314753,5.605115672073502e-5
-9.213120868611433,5.918166838282668e-5
-9.202534574908112,6.242707533735473e-5
-9.191948281204793,6.578770248613815e-5
-9.181361987501472,6.92636369844634e-5
-9.170775693798152,7.285472399304327e-5
-9.160189400094833,7.656056385448896e-5
-9.149603106391512,8.038051077806363e-5
-9.139016812688192,8.431367310604912e-5
-9.128430518984873,8.835891522623006e-5
-9.117844225281551,9.25148611828977e-5
-9.107257931578232,9.677990002780919e-5
-9.096671637874913,0.00010115219293907463
-9.086085344171591,0.0001056296821226408
-9.075499050468272,0.00011021010149707584
-9.064912756764953,0.00011489098914715251
-9.054326463061631,0.00011966970151767661
-9.043740169358312,0.00012454342930256872
-9.033153875654993,0.00012950921496992888
-9.022567581951671,0.00013456397184823804
-9.011981288248352,0.000139704504683558
-9.00139499454503,0.00014492753156399203
-8.990808700841711,0.0001502297070920637
-8.980222407138392,0.00015560764667493787
-8.96963611343507,0.00016105795178704072
-8.959049819731751,0.0001665772360510652
-8.948463526028432,0.00017216215197129667
-8.93787723232511,0.00017780941814517226
-8.927290938621791,0.00018351584677151964
-8.916704644918472,0.0001892783712672888
-8.90611835121515,0.0001950940738011421
-8.895532057511831,0.00020096021254860028
-8.884945763808512,0.00020687424847291164
-8.87435947010519,0.00021283387143590168
-8.863773176401871,0.00021883702544635633
-8.853186882698552,0.00022488193285600394
-8.84260058899523,0.00023096711731990932
-8.832014295291911,0.00023709142534571875
-8.82142800158859,0.0002432540462632346
-8.81084170788527,0.0002494545304582811
-8.800255414181951,0.0002556928057242565
-8.78966912047863,0.00026196919159940726
-8.77908282677531,0.0002682844115702125
-8.76849653307199,0.0002746396030370128
-8.75791023936867,0.00028103632495306285
-8.74732394566535,0.0002874765630644788
-8.73673765196203,0.0002939627326950661
-8.72615135825871,0.0003004976790368097
-8.71556506455539,0.0003070846749239492
-8.70497877085207,0.000313727416085461
-8.69439247714875,0.00032043001388607634
-8.68380618344543,0.00032719698558500085
-8.67321988974211,0.00033403324215410674
-8.66263359603879,0.00034094407371404456
-8.65204730233547,0.0003479351326612576
-8.64146100863215,0.00035501241457055674
-8.63087471492883,0.0003621822369722881
-8.62028842122551,0.0003694512161124888
-8.609702127522189,0.00037682624181612986
-8.59911583381887,0.00038431445058169367
-8.58852954011555,0.00039192319704301273
-8.577943246412229,0.00039966002394190014
-8.56735695270891,0.0004075326307593219
-8.55677065900559,0.0004155488411585022
-8.546184365302269,0.00042371656939556995
-8.53559807159895,0.0004320437858559567
-8.52501177789563,0.00044053848187668165
-8.514425484192309,0.0004492086340137612
-8.50383919048899,0.0004580621679148057
-8.49325289678567,0.00046710692195515296
-8.482666603082349,0.0004763506107944501
-8.47208030937903,0.00048580078900816934
-8.46149401567571,0.0004954648149460318
-8.450907721972388,0.0005053498149669745
-8.440321428269069,0.0005154626481957657
-8.429735134565748,0.0005258098719447268
-8.419148840862428,0.0005363977079392776
-8.408562547159109,0.0005472320094832804
-8.397976253455788,0.0005583182296966631
-8.387389959752468,0.0005696613909540703
-8.376803666049149,0.0005812660556505228
-8.366217372345828,0.0005931362984160568
-8.355631078642508,0.0006052756798985912
-8.345044784939189,0.0006176872222312738
-8.334458491235868,0.0006303733862962034
-8.323872197532548,0.0006433360508942901
-8.313285903829229,0.0006565764939265792
-8.302699610125908,0.0006700953756889304
-8.292113316422588,0.0006838927243780178
-8.281527022719269,0.0006979679239011022
-8.270940729015948,0.0007123197040785414
-8.260354435312628,0.0007269461333198751
-8.249768141609307,0.0007418446138509199
-8.239181847905988,0.0007570118795582718
-8.228595554202668,0.000772443996512967
-8.218009260499347,0.0007881363662228177
-8.207422966796027,0.000804083731654668
-8.196836673092708,0.0008202801860545464
-8.186250379389387,0.0008367191845828591
-8.175664085686067,0.0008533935587660413
-8.165077791982748,0.0008702955337522925
-8.154491498279427,0.0008874167483426988
-8.143905204576107,0.0009047482777510898
-8.133318910872788,0.0009222806590287423
-8.122732617169467,0.0009400039190696693
-8.112146323466147,0.0009579076050938232
-8.101560029762828,0.0009759808174838944
-8.090973736059507,0.0009942122448308582
-8.080387442356187,0.0010125902010231537
-8.069801148652866,0.0010311026641920892
-8.059214854949547,0.0010497373173071513
-8.048628561246227,0.0010684815901932793
-8.038042267542906,0.0010873227027245747
-8.027455973839587,0.0011062477089303496
-8.016869680136267,0.0011252435417327747
-8.006283386432946,0.0011442970580221624
-7.9956970927296265,0.0011633950837626472
-7.985110799026306,0.0011825244588108338
-7.974524505322987,0.0012016720811242956
-7.963938211619666,0.0012208249500310665
-7.953351917916346,0.0012399702082315847
-7.942765624213026,0.001259095182206009
-7.932179330509706,0.0012781874207070353
-7.921593036806386,0.0012972347310274343
-7.911006743103066,0.0013162252127457141
-7.900420449399746,0.0013351472886706864
-7.889834155696426,0.0013539897327279442
-7.879247861993106,0.0013727416945557222
-7.868661568289786,0.001391392720607773
-7.858075274586466,0.001409932771592716
-7.847488980883146,0.0014283522361165958
-7.836902687179825,0.0014466419404335212
-7.826316393476506,0.0014647931542515688
-7.815730099773186,0.0014827975925863837
-7.805143806069865,0.0015006474136998113
-7.794557512366546,0.0015183352132097719
-7.7839712186632255,0.0015358540145061009
-7.773384924959905,0.001553197255656169
-7.762798631256585,0.0015703587730333014
-7.752212337553265,0.0015873327819490197
-7.741626043849945,0.0016041138546178668
-7.731039750146625,0.0016206968958268758
-7.720453456443305,0.001637077116726171
-7.709867162739985,0.001653250007194098
-7.699280869036665,0.0016692113072667158
-7.688694575333345,0.0016849569781523521
-7.678108281630025,0.0017004831733763194
-7.667521987926705,0.0017157862106230541
-7.656935694223384,0.0017308625448559378
-7.646349400520065,0.0017457087433038615
-7.635763106816745,0.0017603214629047306
-7.625176813113424,0.0017746974307911584
-7.614590519410105,0.0017888334283905766
-7.604004225706785,0.0018027262796924265
-7.593417932003464,0.0018163728442091437
-7.582831638300144,0.0018297700151220127
-7.5722453445968245,0.0018429147230637002
-7.561659050893504,0.0018558039459405686
-7.551072757190184,0.00186843472514419
-7.5404864634868645,0.0018808041884412832
-7.529900169783544,0.0018929095797657301
-7.519313876080224,0.0019047482960658016
-7.508727582376904,0.0019163179312849908
-7.498141288673584,0.0019276163274761782
-7.487554994970264,0.0019386416329674507
-7.4769687012669435,0.00194939236741562
-7.466382407563624,0.0019598674934972263
-7.455796113860304,0.0019700664949041727
-7.445209820156983,0.0019799894602246827
-7.434623526453664,0.001989637172210422
-7.424037232750344,0.00199901120184778
-7.413450939047023,0.002008114006576831
-7.402864645343703,0.0020169490319279434
-7.392278351640384,0.002025520815778937
-7.381692057937063,0.002033835094375252
-7.371105764233743,0.0020418989091999656
-7.3605194705304235,0.0020497207137347567
-7.349933176827103,0.0020573104791136547
-7.339346883123783,0.002064679797641345
-7.3287605894204635,0.0020718419831276987
-7.318174295717143,0.0020788121669786004
-7.307588002013823,0.0020856073889823946
-7.2970017083105025,0.0020922466817406902
-7.286415414607183,0.0020987511477112615
-7.275829120903863,0.0021051440278615392
-7.2652428272005425,0.0021114507609700656
-7.254656533497223,0.002117699032664966
-7.244070239793903,0.0021239188133472466
-7.233483946090582,0.0021301423842166305
-7.222897652387262,0.0021364043506954125
-7.212311358683943,0.0021427416426325775
-7.201725064980622,0.002149193500763538
-7.191138771277302,0.002155801449002402
-7.180552477573983,0.0021626092522488123
-7.169966183870662,0.0021696628595041295
-7.159379890167342,0.002177010332205783
-7.148793596464023,0.0021847017578073185
-7.138207302760702,0.0021927891487516873
-7.127621009057382,0.0022013263271052387
-7.117034715354062,0.002210368795240258
-7.106448421650742,0.0022199735930719415
-7.095862127947422,0.0022301991424717492
-7.085275834244102,0.0022411050795890564
-7.074689540540782,0.0022527520759207734
-7.064103246837462,0.0022652016490680464
-7.0535169531341415,0.002278515964211225
-7.042930659430821,0.0022927576274202523
-7.032344365727502,0.0023079894719909644
-7.0217580720241815,0.0023242743390653794
-7.011171778320861,0.0023416748538463367
-7.000585484617542,0.0023602531987616734
-6.989999190914221,0.0023800708849636707
-6.979412897210901,0.0024011885235685777
-6.968826603507582,0.002423665598047333
-6.958240309804261,0.002447560239172499
-6.947654016100941,0.0024729290039064624
-6.937067722397621,0.0024998266595856328
-6.926481428694301,0.002528305974708968
-6.915895134990981,0.002558417517585126
-6.905308841287661,0.0025902094640229134
-6.894722547584341,0.0026237274151723333
-6.884136253881021,0.002659014226534199
-6.873549960177701,0.002696109849058659
-6.86296366647438,0.0027350511831468194
-6.852377372771061,0.0027758719462569435
-6.8417910790677405,0.0028186025546976558
-6.83120478536442,0.0028632700200669665
-6.820618491661101,0.0029098978606702033
-6.8100321979577805,0.0029585060281204154
-6.79944590425446,0.0030091108491975757
-6.788859610551141,0.0030617249829137556
-6.77827331684782,0.003116357392608248
-6.7676870231445,0.0031730133327735367
-6.75710072944118,0.003231694350200036
-6.74651443573786,0.0032923982989155297
-6.73592814203454,0.0033551193682973338
-6.72534184833122,0.0034198481236414648
-6.7147555546279,0.00348657155839242
-6.70416926092458,0.0035552731571672908
-6.69358296722126,0.0036259329686484723
-6.682996673517939,0.003698527687374959
-6.67241037981462,0.0037730307434292037
-6.6618240861113,0.0038494123989968633
-6.651237792407979,0.003927639850773011
-6.64065149870466,0.004007677337195238
-6.63006520500134,0.004089486249506516
-6.619478911298019,0.00417302524568528
-6.6088926175947,0.004258250366327215
-6.5983063238913795,0.004345115151622201
-6.587720030188059,0.004433570758639026
-6.577133736484739,0.004523566078210547
-6.566547442781419,0.004615047850798436
-6.555961149078099,0.004707960780812434
-6.545374855374779,0.0048022476489589325
-6.534788561671459,0.0048978494222979285
-6.524202267968139,0.004994705361794865
-6.513615974264819,0.005092753127260687
-6.503029680561499,0.005191928879680487
-6.492443386858179,0.005292167381035063
-6.481857093154859,0.005393402091818995
-6.471270799451538,0.00549556526655221
-6.460684505748219,0.005598588047668836
-6.450098212044899,0.0057024005582425145
-6.439511918341578,0.005806931994075112
-6.428925624638259,0.005912110715729883
-6.418339330934939,0.006017864341132335
-6.407753037231618,0.0061241198393906255
-6.397166743528298,0.00623080362650141
-6.3865804498249785,0.006337841663607274
-6.375994156121658,0.00644515955845501
-6.365407862418338,0.0065526826706757205
-6.3548215687150185,0.006660336221459992
-6.344235275011698,0.006768045408143724
-6.333648981308378,0.006875735524145936
-6.323062687605058,0.006983332084613353
-6.312476393901738,0.0070907609580292685
-6.301890100198418,0.00719794850393507
-6.2913038064950975,0.007304821716795477
-6.280717512791778,0.007411308375913415
-6.270131219088458,0.007517337201170255
-6.259544925385137,0.007622838014232046
-6.248958631681818,0.007727741904727128
-6.238372337978498,0.007831981400764432
-6.227786044275177,0.007935490643027818
-6.217199750571857,0.008038205561554383
-6.206613456868538,0.00814006405418045
-6.196027163165217,0.008241006165527167
-6.185440869461897,0.008340974265293174
-6.1748545757585775,0.008439913224531685
-6.164268282055257,0.008537770588512454
-6.153681988351937,0.008634496744708241
-6.1430956946486175,0.00873004508440097
-6.132509400945297,0.008824372156376695
-6.121923107241977,0.00891743781117241
-6.1113368135386565,0.009009205334348453
-6.100750519835337,0.009099641567294887
-6.090164226132017,0.009188717014131435
-6.0795779324286965,0.009276405933334606
-6.068991638725377,0.009362686412816842
-6.058405345022057,0.009447540427295079
-6.047819051318736,0.009530953876914574
-6.037232757615416,0.009612916606240307
-6.026646463912097,0.00969342240288996
-6.016060170208776,0.00977246897525694
-6.005473876505456,0.00985005790895957
-5.994887582802137,0.009926194601848879
-5.984301289098816,0.010000888177610962
-5.973714995395496,0.010074151378210605
-5.963128701692177,0.01014600043563332
-5.952542407988856,0.0102164549235963
-5.941956114285536,0.010285537590108026
-5.931369820582216,0.010353274171961437
-5.920783526878896,0.010419693192443295
-5.910197233175576,0.010484825743729598
-5.899610939472256,0.010548705255612651
-5.889024645768936,0.010611367252366062
-5.878438352065616,0.010672849099698236
-5.8678520583622955,0.010733189743870903
-5.857265764658975,0.010792429445164235
-5.846679470955656,0.010850609507954849
-5.8360931772523355,0.010907772009732853
-5.825506883549015,0.010963959531422249
-5.814920589845696,0.01101921489138075
-5.804334296142375,0.01107358088544304
-5.793748002439055,0.011127100035333655
-5.783161708735736,0.011179814347714055
-5.772575415032415,0.01123176508604057
-5.761989121329095,0.011282992557300408
-5.751402827625775,0.01133353591555944
-5.740816533922455,0.011383432984101794
-5.730230240219135,0.011432720097766236
-5.719643946515815,0.01148143196689358
-5.709057652812495,0.011529601564090865
-5.698471359109175,0.011577260034796415
-5.687885065405855,0.011624436632397414
-5.677298771702534,0.011671158678408877
-5.666712477999215,0.011717451547975656
-5.6561261842958945,0.011763338680706163
-5.645539890592574,0.011808841616593936
-5.634953596889255,0.01185398005653246
-5.6243673031859345,0.011898771946680205
-5.613781009482614,0.011943233585694775
-5.603194715779295,0.011987379753623455
-5.592608422075974,0.012031223861019073
-5.582022128372654,0.01207477811664724
-5.571435834669334,0.012118053711961667
-5.560849540966014,0.012161061020356658
-5.550263247262694,0.012203809809055308
-5.539676953559374,0.01224630946136615
-5.529090659856054,0.012288569206934948
-5.518504366152734,0.012330598357539198
-5.507918072449414,0.012372406545916835
-5.497331778746093,0.012414003965090252
-5.486745485042774,0.01245540160564244
-5.476159191339454,0.012496611488422986
-5.465572897636133,0.012537646890207635
-5.454986603932814,0.012578522559906047
-5.4444003102294936,0.012619254923008284
-5.433814016526173,0.012659862272076716
-5.423227722822854,0.01270036494123157
-5.4126414291195335,0.012740785462736331
-5.402055135416213,0.012781148703968959
-5.391468841712893,0.012821481983258663
-5.380882548009573,0.012861815163278542
-5.370296254306253,0.012902180720905983
-5.359709960602933,0.012942613792695824
-5.349123666899613,0.01298315219535151
-5.338537373196293,0.013023836420825465
-5.327951079492973,0.013064709605929864
-5.317364785789652,0.013105817476588916
-5.306778492086333,0.01314720826711161
-5.296192198383013,0.013188932615109283
-5.285605904679692,0.013231043432920156
-5.275019610976373,0.013273595756631541
-5.264433317273053,0.01331664657401051
-5.253847023569732,0.013360254632858302
-5.243260729866413,0.013404480231495673
-5.232674436163093,0.01344938499326058
-5.222088142459772,0.013495031627056392
-5.211501848756452,0.013541483676125734
-5.2009155550531325,0.013588805257341522
-5.190329261349812,0.013637060793402184
-5.179742967646492,0.013686314740389154
-5.1691566739431725,0.013736631313195254
-5.158570380239852,0.013788074211357654
-5.147984086536532,0.013840706347831615
-5.137397792833212,0.013894589583219992
-5.126811499129892,0.01394978446792879
-5.116225205426572,0.014006349994651552
-5.1056389117232515,0.014064343363496712
-5.095052618019932,0.01412381976196021
-5.084466324316612,0.014184832161815698
-5.073880030613291,0.014247431134844866
-5.063293736909972,0.014311664689162559
-5.052707443206652,0.014377578127708741
-5.042121149503331,0.014445213930281354
-5.031534855800011,0.014514611660274615
-5.020948562096692,0.014585807897065945
-5.010362268393371,0.014658836194766534
-4.999775974690051,0.014733727067813524
-4.9891896809867315,0.014810508003643405
-4.978603387283411,0.014889203502442001
-4.968017093580091,0.014969835143725255
-4.9574307998767715,0.015052421679263772
-4.946844506173451,0.015136979151628292
-4.936258212470131,0.015223521037402257
-4.9256719187668105,0.015312058413886744
-4.915085625063491,0.015402600147910023
-4.904499331360171,0.015495153105155268
-4.8939130376568505,0.015589722378232473
-4.883326743953531,0.01568631153155094
-4.872740450250211,0.015784922860893034
-4.86215415654689,0.015885557665454627
-4.85156786284357,0.015988216529999877
-4.840981569140251,0.016092899614680384
-4.83039527543693,0.016199606949992923
-4.81980898173361,0.01630833873429454
-4.809222688030291,0.016419095631259806
-4.79863639432697,0.016531879064654503
-4.78805010062365,0.016646691507809716
