Values,Density
-5.324548174359232,2.749883196984104e-7
-5.319455466019561,2.851237045908839e-7
-5.31436275767989,2.9808726420554876e-7
-5.30927004934022,3.139901205706508e-7
-5.304177341000549,3.329647797756241e-7
-5.299084632660878,3.551658653011547e-7
-5.293991924321207,3.8077094188793126e-7
-5.288899215981537,4.0998143333026427e-7
-5.2838065076418665,4.430236332786386e-7
-5.278713799302196,4.801498120488024e-7
-5.273621090962525,5.216394192708584e-7
-5.268528382622854,5.67800384237982e-7
-5.263435674283183,6.189705138714974e-7
-5.258342965943513,6.755189900509162e-7
-5.253250257603842,7.37847966142402e-7
-5.248157549264171,8.06394262697907e-7
-5.2430648409245,8.816311637127594e-7
-5.237972132584829,9.640703117208549e-7
-5.232879424245159,1.054263702032765e-6
-5.227786715905488,1.1528057756726717e-6
-5.222694007565817,1.2603356085716388e-6
-5.217601299226147,1.3775391967396633e-6
-5.212508590886476,1.5051518346409498e-6
-5.2074158825468055,1.64396058444094e-6
-5.202323174207135,1.7948068330164713e-6
-5.197230465867464,1.9585889335926865e-6
-5.192137757527793,2.1362649270106893e-6
-5.187045049188122,2.3288553386846544e-6
-5.181952340848452,2.5374460450589e-6
-5.176859632508781,2.7631912036529815e-6
-5.17176692416911,3.007316240366542e-6
-5.166674215829439,3.2711208846347706e-6
-5.161581507489768,3.5559822455771134e-6
-5.156488799150098,3.8633579189555414e-6
-5.151396090810428,4.194789114506277e-6
-5.146303382470757,4.551903792627751e-6
-5.141210674131086,4.936419798099584e-6
-5.136117965791415,5.350147977901953e-6
-5.1310252574517445,5.794995268188115e-6
-5.125932549112074,6.272967736948611e-6
-5.120839840772403,6.786173563615681e-6
-5.115747132432732,7.336825941274723e-6
-5.110654424093061,7.927245880844785e-6
-5.105561715753391,8.5598648994923e-6
-5.10046900741372,9.237227572591461e-6
-5.095376299074049,9.961993927859025e-6
-5.090283590734378,1.0736941660141261e-5
-5.085190882394708,1.156496814289738e-5
-5.0800981740550375,1.2449092213851452e-5
-5.075005465715367,1.3392455708706105e-5
-5.069912757375696,1.4398324718316573e-5
-5.064820049036025,1.5470090543688933e-5
-5.059727340696354,1.6611270321057348e-5
-5.0546346323566835,1.7825507290384138e-5
-5.049541924017013,1.9116570681214536e-5
-5.044449215677342,2.0488355185237055e-5
-5.039356507337671,2.1944879990393792e-5
-5.034263798998,2.3490287347444593e-5
-5.02917109065833,2.5128840641337052e-5
-5.024078382318659,2.686492193999324e-5
-5.018985673978988,2.8703028993795794e-5
-5.013892965639318,3.0647771659474566e-5
-5.008800257299647,3.270386772211793e-5
-5.0037075489599765,3.487613809225669e-5
-4.998614840620306,3.7169501353104956e-5
-4.993522132280635,3.9588967637548336e-5
-4.988429423940964,4.213963181357548e-5
-4.983336715601293,4.482666596063861e-5
-4.9782440072616225,4.76553111193722e-5
-4.973151298921952,5.0630868302415505e-5
-4.968058590582281,5.375868875263576e-5
-4.96296588224261,5.704416344197525e-5
-4.957873173902939,6.0492711803118715e-5
-4.952780465563269,6.410976969318909e-5
-4.947687757223599,6.790077658818576e-5
-4.942595048883928,7.187116201371954e-5
-4.937502340544257,7.602633121971732e-5
-4.932409632204586,8.037165011079688e-5
-4.9273169238649155,8.491242944870178e-5
-4.922224215525245,8.965390834702203e-5
-4.917131507185574,9.460123708382451e-5
-4.912038798845903,9.975945926023449e-5
-4.906946090506232,0.00010513349334091097
-4.9018533821665615,0.00011072811361413529
-4.896760673826891,0.00011654793061623386
-4.89166796548722,0.0001225973710684378
-4.886575257147549,0.0001288806573806799
-4.881482548807879,0.00013540178678060058
-4.8763898404682084,0.0001421645101312459
-4.871297132128538,0.0001491723105063531
-4.866204423788867,0.0001564283815956778
-4.861111715449196,0.0001639356060192674
-4.856019007109525,0.00017169653363163448
-4.8509262987698545,0.00017971335990288155
-4.845833590430184,0.00018798790446762983
-4.840740882090513,0.0001965215899354532
-4.835648173750842,0.00020531542106019124
-4.830555465411171,0.00021436996437014782
-4.8254627570715005,0.00022368532836149202
-4.82037004873183,0.00023326114436133128
-4.815277340392159,0.00024309654816837825
-4.810184632052489,0.0002531901625800661
-4.805091923712818,0.0002635400809165684
-4.799999215373147,0.0002741438516527385
-4.794906507033477,0.0002849984642673682
-4.789813798693806,0.00029610033642131777
-4.784721090354135,0.0003074453025716016
-4.779628382014464,0.0003190286041289527
-4.7745356736747935,0.00033084488126266685
-4.769442965335123,0.0003428881664545928
-4.764350256995452,0.00035515187989825804
-4.759257548655781,0.0003676288268372062
-4.75416484031611,0.0003803111969299996
-4.7490721319764395,0.0003931905657235386
-4.74397942363677,0.0004062578983110086
-4.738886715297099,0.00041950355524331996
-4.733794006957428,0.0004329173007549007
-4.728701298617757,0.00044648831335650707
-4.723608590278086,0.0004602051988411783
-4.718515881938416,0.00047405600573608483
-4.713423173598745,0.0004880282432273373
-4.708330465259074,0.0005021089015728084
-4.703237756919403,0.0005162844750061478
-4.6981450485797325,0.0005305409871277857
-4.693052340240062,0.0005448640187634664
-4.687959631900391,0.000559238738261485
-4.68286692356072,0.0005736499341885987
-4.677774215221049,0.0005880820503699194
-4.672681506881379,0.00060251922320928
-4.667588798541709,0.0006169453212124467
-4.662496090202038,0.0006313439866245032
-4.657403381862367,0.0006456986790795496
-4.652310673522696,0.0006599927211520609
-4.647217965183025,0.0006742093456838841
-4.642125256843355,0.0006883317447524623
-4.637032548503684,0.0007023431201353083
-4.631939840164013,0.0007162267351127507
-4.626847131824342,0.0007299659674442794
-4.6217544234846715,0.0007435443633430378
-4.616661715145001,0.0007569456922643014
-4.61156900680533,0.0007701540023171182
-4.60647629846566,0.0007831536761002491
-4.601383590125989,0.0007959294867574919
-4.596290881786318,0.0008084666540422725
-4.591198173446648,0.0008207509001782074
-4.586105465106977,0.0008327685052952221
-4.581012756767306,0.0008445063622232471
-4.575920048427635,0.0008559520304204649
-4.570827340087964,0.0008670937888139983
-4.565734631748294,0.0008779206873315419
-4.560641923408623,0.0008884225969050417
-4.555549215068952,0.0008985902577281412
-4.550456506729281,0.0009084153255560085
-4.5453637983896105,0.0009178904158390249
-4.540271090049941,0.0009270091454888964
-4.53517838171027,0.0009357661720831899
-4.530085673370599,0.0009441572303215554
-4.524992965030928,0.000952179165556984
-4.519900256691257,0.0009598299642359408
-4.514807548351587,0.0009671087810906188
-4.509714840011916,0.0009740159629403082
-4.504622131672245,0.000980553068971892
-4.499529423332574,0.000986722887379917
-4.494436714992903,0.0009925294482653142
-4.489344006653233,0.0009979780327029047
-4.484251298313562,0.0010030751779055778
-4.479158589973891,0.001007828678426993
-4.47406588163422,0.0010122475833630865
-4.46897317329455,0.0010163421895258312
-4.46388046495488,0.0010201240305834432
-4.458787756615209,0.00102360586217389
-4.453695048275538,0.0010268016430190663
-4.448602339935867,0.0010297265120801364
-4.443509631596196,0.0010323967618148303
-4.438416923256526,0.0010348298076107516
-4.433324214916855,0.0010370441534863022
-4.428231506577184,0.0010390593541667866
-4.423138798237513,0.001040895973656765
-4.418046089897842,0.0010425755404463392
-4.412953381558172,0.0010441204995014926
-4.407860673218501,0.001045554161202175
-4.402767964878831,0.0010469006474044906
-4.39767525653916,0.001048184834815672
-4.392582548199489,0.0010494322958786535
-4.3874898398598186,0.0010506692373757859
-4.382397131520148,0.001051922436968963
-4.377304423180477,0.001053219177898909
-4.372211714840806,0.0010545871820774257
-4.367119006501135,0.0010560545418073124
-4.362026298161465,0.0010576496503722057
-4.356933589821794,0.0010594011317402513
-4.351840881482123,0.0010613377696285283
-4.346748173142452,0.0010634884361745353
-4.341655464802781,0.0010658820204636332
-4.3365627564631115,0.0010685473571567469
-4.331470048123441,0.001071513155462279
-4.32637733978377,0.0010748079286923367
-4.321284631444099,0.0010784599246381203
-4.316191923104428,0.0010824970569936346
-4.3110992147647575,0.0010869468380522804
-4.306006506425087,0.001091836312889071
-4.300913798085416,0.0010971919952381336
-4.295821089745745,0.0011030398052612428
-4.290728381406074,0.0011094050093958395
-4.285635673066404,0.0011163121624587972
-4.280542964726733,0.001123785052172003
-4.275450256387062,0.0011318466462626672
-4.270357548047391,0.0011405190422792495
-4.265264839707721,0.001149823420251913
-4.2601721313680505,0.001159779998310657
-4.25507942302838,0.001170407991363955
-4.249986714688709,0.0011817255729248603
-4.244894006349038,0.0011937498401578214
-4.239801298009367,0.0012064967822063089
-4.2347085896696965,0.0012199812518474565
-4.229615881330026,0.0012342169405050855
-4.224523172990355,0.0012492163566403657
-4.219430464650684,0.0012649908075246076
-4.214337756311013,0.0012815503843865783
-4.209245047971343,0.0012989039509142836
-4.204152339631672,0.0013170591350772456
-4.199059631292002,0.0013360223242261308
-4.193966922952331,0.0013557986634125494
-4.18887421461266,0.001376392056864354
-4.1837815062729895,0.0013978051725384057
-4.178688797933319,0.0014200394496668035
-4.173596089593648,0.001443095109201503
-4.168503381253977,0.0014669711670558232
-4.163410672914306,0.0014916654500334806
-4.1583179645746355,0.001517174614330955
-4.153225256234965,0.0015434941664905105
-4.148132547895294,0.0015706184866813772
-4.143039839555623,0.0015985408541770354
-4.137947131215952,0.0016272534748987652
-4.132854422876282,0.0016567475108897776
-4.127761714536612,0.0016870131115847048
-4.122669006196941,0.0017180394467379869
-4.11757629785727,0.0017498147408749193
-4.112483589517599,0.001782326309130014
-4.1073908811779285,0.0018155605943385215
-4.102298172838258,0.0018495032052503147
-4.097205464498587,0.0018841389557361682
-4.092112756158916,0.0019194519048621348
-4.087020047819245,0.001955425397710285
-4.0819273394795745,0.001992042106828602
-4.076834631139904,0.0020292840741978294
-4.071741922800233,0.002067132753610118
-4.066649214460562,0.002105569053355081
-4.061556506120892,0.00214457337912155
-4.0564637977812215,0.0021841256770227017
-4.051371089441551,0.0022242054766637136
-4.04627838110188,0.00226479193417337
-4.041185672762209,0.0023058638751310423
-4.036092964422538,0.002347399837323654
-4.0310002560828675,0.002389378113275249
-4.025907547743197,0.0024317767924982372
-4.020814839403526,0.0024745738034192754
-4.015722131063855,0.0025177469549414896
-4.010629422724184,0.0025612739776072336
-4.0055367143845135,0.0026051325643328084
-4.000444006044843,0.002649300410690411
-3.9953512977051724,0.0026937552547173184
-3.9902585893655016,0.0027384749162352473
-3.985165881025831,0.0027834373356692586
-3.98007317268616,0.002828620612353576
-3.9749804643464897,0.0028740030423200173
-3.969887756006819,0.0029195631555618677
-3.964795047667148,0.0029652797527706803
-3.9597023393274773,0.0030111319415427624
-3.9546096309878065,0.0030570991720531996
-3.9495169226481357,0.0031031612721952656
-3.9444242143084653,0.0031492984821815655
-3.9393315059687946,0.0031954914886043653
-3.9342387976291238,0.0032417214579474845
-3.929146089289453,0.003287970069543867
-3.924053380949782,0.003334219547967895
-3.9189606726101114,0.0033804526948498044
-3.9138679642704406,0.0034266529200963534
-3.9087752559307702,0.003472804272498134
-3.9036825475910994,0.00351889146969977
-3.8985898392514287,0.003564899927507284
-3.893497130911758,0.0036108157884993976
-3.888404422572087,0.0036566259499086584
-3.8833117142324163,0.0037023180907320118
-3.8782190058927455,0.003747880698026537
-3.873126297553075,0.0037933030923415567
-3.8680335892134043,0.0038385754522353237
-3.8629408808737336,0.0038836888378184094
-3.8578481725340628,0.0039286352132635975
-3.852755464194392,0.003973407468218301
-3.847662755854721,0.004017999438051233
-3.842570047515051,0.004062405922863445
-3.83747733917538,0.004106622705189645
-3.8323846308357092,0.004150646566315948
-3.8272919224960384,0.004194475301134723
-3.8221992141563677,0.00423810773146128
-3.817106505816697,0.004281543717730827
-3.812013797477026,0.004324784168998345
-3.8069210891373557,0.0043678310511629835
-3.801828380797685,0.0044106873933386324
-3.796735672458014,0.004453357292296474
-3.7916429641183433,0.004495845914905532
-3.7865502557786725,0.004538159498501372
-3.7814575474390018,0.004580305349116744
-3.776364839099331,0.004622291837511697
-3.7712721307596606,0.004664128392946169
-3.76617942241999,0.004705825494643258
-3.761086714080319,0.0047473946608982825
-3.7559940057406482,0.0047888484357936556
-3.7509012974009774,0.004830200373489036
-3.7458085890613066,0.004871465020063345
-3.740715880721636,0.0049126578928912045
-3.7356231723819655,0.004953795457549821
-3.7305304640422947,0.004994895102256281
-3.725437755702624,0.005035975109848408
-3.720345047362953,0.005077054627330327
-3.7152523390232823,0.005118153633014717
-3.7101596306836115,0.005159292901303612
-3.705066922343941,0.005200493965159875
-3.6999742140042704,0.005241779076333421
-3.6948815056645996,0.005283171163414459
-3.689788797324929,0.0053246937877995965
-3.684696088985258,0.005366371097664654
-3.6796033806455872,0.005408227780050421
-3.6745106723059164,0.005450289011176924
-3.669417963966246,0.0054925804051126
-3.6643252556265753,0.005535127960933756
-3.6592325472869045,0.0055779580085214605
-3.6541398389472337,0.005621097153148676
-3.649047130607563,0.005664572219023533
-3.643954422267892,0.005708410191959872
-3.6388617139282213,0.005752638161355468
-3.633769005588551,0.005797283261665953
-3.62867629724888,0.005842372613568481
-3.6235835889092094,0.005887933265016229
-3.6184908805695386,0.005933992132389945
-3.613398172229868,0.005980575941957977
-3.608305463890197,0.006027711171859316
-3.6032127555505267,0.006075423994829757
-3.598120047210856,0.006123740221892217
-3.593027338871185,0.006172685247233826
-3.5879346305315143,0.006222283994495439
-3.5828419221918435,0.006272560864697399
-3.5777492138521727,0.006323539686025276
-3.572656505512502,0.006375243665699056
-3.5675637971728316,0.006427695344144324
-3.5624710888331608,0.0064809165516826256
-3.55737838049349,0.006534928367953342
-3.552285672153819,0.006589751084273723
-3.5471929638141484,0.006645404169138225
-3.5421002554744776,0.006701906237050189
-3.537007547134807,0.006759275020872691
-3.5319148387951365,0.006817527347873596
-3.5268221304554657,0.006876679119633266
-3.521729422115795,0.006936745295969099
-3.516636713776124,0.0069977398830224444
-3.5115440054364533,0.0070596759256381526
-3.5064512970967825,0.007122565504154722
-3.501358588757112,0.007186419735709022
-3.4962658804174414,0.007251248780142978
-3.4911731720777706,0.007317061850583744
-3.4860804637380998,0.007383867228753439
-3.480987755398429,0.0074516722850447355
-3.475895047058758,0.007520483503381695
-3.4708023387190874,0.007590306510865487
-3.465709630379417,0.007661146112185197
-3.4606169220397462,0.007733006328753943
-3.4555242137000755,0.0078058904425090374
-3.4504315053604047,0.007879801044294614
-3.445338797020734,0.00795474008672297
-3.440246088681063,0.008030708941388838
-3.4351533803413923,0.008107708460290358
-3.430060672001722,0.00818573904128478
-3.424967963662051,0.008264800697389163
-3.4198752553223803,0.008344893129710818
-3.4147825469827096,0.008426015803770087
-3.4096898386430388,0.008508168028959463
-3.404597130303368,0.008591349040857383
-3.3995044219636976,0.008675558086096661
-3.394411713624027,0.008760794509466412
-3.389319005284356,0.008847057842906077
-3.3842262969446852,0.008934347896031557
-3.3791335886050144,0.009022664847815585
-3.3740408802653437,0.00911200933902676
-3.368948171925673,0.009202382565016294
-3.3638554635860025,0.009293786368427655
-3.3587627552463317,0.00938622333138922
-3.353670046906661,0.009479696866740427
-3.34857733856699,0.009574211307831289
-3.3434846302273193,0.009669771996425826
-3.3383919218876486,0.00976638536823559
-3.3332992135479778,0.009864059035604462
-3.3282065052083074,0.009962801866861458
-3.3231137968686366,0.010062624061862648
-3.318021088528966,0.010163537223240975
-3.312928380189295,0.010265554422890483
-3.3078356718496242,0.010368690263216417
-3.3027429635099534,0.010472960932693553
-3.2976502551702827,0.010578384255286087
-3.2925575468306123,0.0106849797332969
-3.2874648384909415,0.010792768583232727
-3.2823721301512707,0.010901773764288383
-3.2772794218116,0.011012019999078809
-3.272186713471929,0.011123533786270706
-3.2670940051322583,0.011236343404792466
-3.262001296792588,0.01135047890933373
-3.256908588452917,0.011465972116874277
-3.2518158801132464,0.011582856584020544
-3.2467231717735756,0.011701167574962892
-3.241630463433905,0.011820942019905967
-3.236537755094234,0.011942218463866717
-3.2314450467545632,0.012065037005777511
-3.226352338414893,0.0121894392278751
-3.221259630075222,0.012315468115405057
-3.2161669217355513,0.012443167966717298
-3.2110742133958805,0.01257258429387786
-3.2059815050562097,0.012703763713971132
-3.200888796716539,0.012836753831319849
-3.195796088376868,0.012971603110897683
-3.190703380037198,0.013108360743263221
-3.185610671697527,0.013247076501394308
-3.180517963357856,0.013387800589852982
-3.1754252550181854,0.013530583486760766
-3.1703325466785146,0.013675475779115168
-3.165239838338844,0.01382252799202386
-3.1601471299991735,0.01397179041248232
-3.1550544216595027,0.014123312908364409
-3.149961713319832,0.014277144743337666
-3.144869004980161,0.014433334388456537
-3.1397762966404903,0.014591929331224194
-3.1346835883008195,0.01475297588294801
-3.1295908799611487,0.014916518985246019
-3.1244981716214784,0.015082602016588391
-3.1194054632818076,0.015251266599783889
-3.1143127549421368,0.015422552411340206
-3.109220046602466,0.01559649699364327
-3.104127338262795,0.01577313557091217
-3.0990346299231244,0.015952500869893624
-3.0939419215834536,0.01613462294626124
-3.0888492132437833,0.016319529017681376
-3.0837565049041125,0.016507243304501297
-3.0786637965644417,0.01669778687899962
-3.073571088224771,0.016891177524121982
-3.0684783798851,0.017087429602600814
-3.0633856715454293,0.01728655393732834
-3.058292963205759,0.017488557703818287
-3.053200254866088,0.017693444335551402
-3.0481075465264174,0.01790121344295568
-3.0430148381867466,0.01811186074672115
-3.0379221298470758,0.018325378026096614
-3.032829421507405,0.01854175308275326
-3.027736713167734,0.018760969720738874
-3.022644004828064,0.018983007742976635
-3.017551296488393,0.01920784296469083
-3.0124585881487222,0.019435447244066158
-3.0073658798090515,0.019665788530369068
-3.0022731714693807,0.019898830929674864
-2.99718046312971,0.02013453478826457
-2.992087754790039,0.020372856793663702
-2.9869950464503687,0.02061375009321132
-2.981902338110698,0.02085716442995517
-2.976809629771027,0.02110304629558058
-2.9717169214313564,0.021351339099989063
-2.9666242130916856,0.021601983357053284
-2.9615315047520148,0.02185491688598559
-2.9564387964123444,0.0221100750276681
-2.9513460880726736,0.022367390875208275
-2.946253379733003,0.022626795517898216
-2.941160671393332,0.022888218297675345
-2.9360679630536612,0.023151587077104883
-2.9309752547139905,0.023416828517830366
-2.9258825463743197,0.02368386836836895
-2.9207898380346493,0.023952631760063885
-2.9156971296949785,0.024223043509946588
-2.9106044213553077,0.024495028429207547
-2.905511713015637,0.02476851163592747
-2.900419004675966,0.02504341887067799
-2.8953262963362953,0.02531967681356812
-2.8902335879966246,0.025597213401284003
-2.885140879656954,0.025875958142649223
-2.8800481713172834,0.02615584243122078
-2.8749554629776126,0.026436799853430434
-2.869862754637942,0.026718766490783627
-2.864770046298271,0.027001681214638577
-2.8596773379586002,0.027285485972106546
-2.85458462961893,0.02757012606164126
-2.849491921279259,0.027855550396918297
-2.8443992129395883,0.02814171175764772
-2.8393065045999175,0.028428567026012052
-2.8342137962602467,0.02871607740747917
-2.829121087920576,0.029004208634802096
-2.824028379580905,0.02929293115408905
