Values,Density
-6.716326021963731,3.841765258832952e-7
-6.710127363538142,3.8240703011116484e-7
-6.703928705112552,3.834681827075137e-7
-6.697730046686963,3.873526755460155e-7
-6.691531388261373,3.9406867610725094e-7
-6.685332729835784,4.036397370510425e-7
-6.679134071410194,4.1610475561004723e-7
-6.672935412984605,4.3151798234664085e-7
-6.666736754559015,4.4994907764939196e-7
-6.6605380961334255,4.71483215983004e-7
-6.6543394377078355,4.962212359627127e-7
-6.6481407792822464,5.242798361143608e-7
-6.6419421208566565,5.55791814835227e-7
-6.635743462431067,5.909063540560089e-7
-6.629544804005477,6.29789345063525e-7
-6.623346145579888,6.726237563592363e-7
-6.617147487154298,7.196100411666073e-7
-6.610948828728709,7.709665851007852e-7
-6.60475017030312,8.269301916830063e-7
-6.59855151187753,8.877566050197183e-7
-6.592352853451941,9.537210685917064e-7
-6.586154195026351,1.0251189183491105e-6
-6.579955536600762,1.1022662093629343e-6
-6.573756878175172,1.1855003741734205e-6
-6.567558219749583,1.2751809115030266e-6
-6.561359561323993,1.3716901037658102e-6
-6.555160902898404,1.4754337615552338e-6
-6.548962244472814,1.586841993500565e-6
-6.542763586047225,1.7063699993546955e-6
-6.536564927621635,1.8344988843288501e-6
-6.530366269196046,1.971736492856202e-6
-6.524167610770456,2.118618258814542e-6
-6.517968952344867,2.2757080705084094e-6
-6.511770293919277,2.4435991474356343e-6
-6.505571635493688,2.6229149261195427e-6
-6.499372977068099,2.81430995241797e-6
-6.493174318642509,3.0184707768519947e-6
-6.4869756602169195,3.2361168502423668e-6
-6.4807770017913295,3.468001416029364e-6
-6.4745783433657405,3.71491239566828e-6
-6.4683796849401505,3.9776732639715436e-6
-6.462181026514561,4.257143909642148e-6
-6.455982368088971,4.554221478093499e-6
-6.449783709663382,4.86984119120481e-6
-6.443585051237792,5.2049771408689506e-6
-6.437386392812203,5.560643050974605e-6
-6.431187734386613,5.937893003291452e-6
-6.424989075961024,6.337822123098687e-6
-6.418790417535434,6.761567218843386e-6
-6.412591759109845,7.210307370983165e-6
-6.406393100684255,7.685264465430246e-6
-6.400194442258666,8.187703665155869e-6
-6.393995783833077,8.718933815727008e-6
-6.387797125407487,9.280307778321891e-6
-6.381598466981898,9.873222685553135e-6
-6.375399808556308,1.049912011344791e-5
-6.369201150130719,1.1159486165008593e-5
-6.363002491705129,1.185585145886995e-5
-6.35680383327954,1.2589791017773226e-5
-6.35060517485395,1.3362924051076811e-5
-6.344406516428361,1.4176913625742952e-5
-6.338207858002771,1.5033466220308362e-5
-6.332009199577182,1.593433115612184e-5
-6.325810541151592,1.6881299901065194e-5
-6.319611882726003,1.7876205239881083e-5
-6.313413224300413,1.892092030681119e-5
-6.3072145658748235,2.001735747553593e-5
-6.301015907449234,2.1167467101280285e-5
-6.2948172490236445,2.2373236112048327e-5
-6.288618590598055,2.363668644349195e-5
-6.282419932172465,2.4959873315527712e-5
-6.276221273746876,2.6344883345592613e-5
-6.270022615321286,2.779383249722038e-5
-6.263823956895697,2.9308863860744248e-5
-6.257625298470107,3.089214526416596e-5
-6.251426640044518,3.2545866712773526e-5
-6.245227981618928,3.427223765713498e-5
-6.239029323193339,3.607348408836766e-5
-6.232830664767749,3.79518454609604e-5
-6.22663200634216,3.990957144487219e-5
-6.22043334791657,4.194891850710695e-5
-6.214234689490981,4.407214632611478e-5
-6.208036031065391,4.628151404131398e-5
-6.201837372639802,4.8579276341346274e-5
-6.195638714214212,5.096767939567607e-5
-6.189440055788623,5.344895663452051e-5
-6.183241397363034,5.602532438304204e-5
-6.177042738937444,5.869897735645362e-5
-6.170844080511855,6.147208402377776e-5
-6.164645422086265,6.434678184823566e-5
-6.158446763660676,6.732517241361932e-5
-6.152248105235086,7.040931644653142e-5
-6.146049446809497,7.360122874547549e-5
-6.139850788383907,7.690287302782159e-5
-6.1336521299583175,8.031615670765074e-5
-6.127453471532728,8.384292561697986e-5
-6.1212548131071385,8.748495868468945e-5
-6.1150561546815485,9.124396258765495e-5
-6.108857496255959,9.51215663891336e-5
-6.102658837830369,9.911931618062936e-5
-6.09646017940478,0.000103238669743759
-6.09026152097919,0.00010748099124907422
-6.084062862553601,0.00011184754600994471
-6.077864204128012,0.00011633949530905985
-6.071665545702422,0.00012095789131674316
-6.065466887276833,0.0001257036721196915
-6.059268228851243,0.0001305776568793853
-6.053069570425654,0.00013558054113949752
-6.046870912000064,0.00014071289230276843
-6.040672253574475,0.00014597514529548876
-6.034473595148885,0.00015136759844063723
-6.028274936723296,0.00015689040955893605
-6.022076278297706,0.0001625435923163724
-6.015877619872117,0.00016832701283884914
-6.009678961446527,0.0001742403866116099
-6.003480303020938,0.0001802832756816709
-5.997281644595348,0.00018645508618233024
-5.991082986169759,0.00019275506619556874
-5.984884327744169,0.0001991823039692569
-5.97868566931858,0.00020573572650543336
-5.972487010892991,0.0002124140985329051
-5.966288352467401,0.00021921602187957058
-5.9600896940418115,0.00022613993525566088
-5.953891035616222,0.0002331841144599862
-5.9476923771906325,0.00024034667301914476
-5.9414937187650425,0.0002476255632687266
-5.935295060339453,0.000255018577883152
-5.9290964019138634,0.00026252335186079177
-5.922897743488274,0.00027013736496806287
-5.916699085062684,0.0002778579446451254
-5.910500426637095,0.0002856822693746829
-5.904301768211505,0.000293607372511797
-5.898103109785916,0.000301630146573628
-5.891904451360326,0.000309747347983059
-5.885705792934737,0.00031795560226127555
-5.879507134509147,0.000326251409659647
-5.873308476083558,0.00033463115122216256
-5.867109817657969,0.0003430910952652421
-5.860911159232379,0.00035162740426163304
-5.85471250080679,0.00036023614211232007
-5.8485138423812,0.0003689132817890758
-5.842315183955611,0.0003776547133273458
-5.836116525530021,0.00038645625214952205
-5.829917867104432,0.00039531364769411145
-5.823719208678842,0.0004042225923272316
-5.817520550253253,0.00041317873050955665
-5.811321891827663,0.0004221776681912785
-5.805123233402074,0.0004312149824055086
-5.798924574976484,0.0004402862310300291
-5.792725916550895,0.0004493869626853199
-5.786527258125305,0.0004585127267359105
-5.780328599699716,0.0004676590833620148
-5.774129941274126,0.00047682161366571947
-5.7679312828485365,0.0004859959297771801
-5.761732624422947,0.0004951776849247674
-5.7555339659973574,0.0005043625834326255
-5.749335307571768,0.0005135463906093055
-5.743136649146178,0.0005227249424909746
-5.736937990720589,0.0005318941554022464
-5.730739332294999,0.000541050035298936
-5.72454067386941,0.0005501886868560339
-5.71834201544382,0.000559306322266773
-5.712143357018231,0.0005683992697169855
-5.705944698592641,0.0005774639815020396
-5.699746040167052,0.0005864970417535139
-5.693547381741462,0.0005954951737442531
-5.687348723315873,0.0006044552467421895
-5.681150064890283,0.0006133742823846329
-5.674951406464694,0.0006222494605461933
-5.668752748039104,0.0006310781246760787
-5.662554089613515,0.0006398577865819859
-5.656355431187926,0.0006485861306396463
-5.650156772762336,0.0006572610174108151
-5.643958114336747,0.0006658804866525696
-5.637759455911157,0.0006744427597053064
-5.631560797485568,0.0006829462412487018
-5.625362139059978,0.000691389520416915
-5.619163480634389,0.000699771371267862
-5.612964822208799,0.0007080907526041923
-5.60676616378321,0.000716346807145319
-5.60056750535762,0.0007245388600542989
-5.5943688469320305,0.0007326664168251177
-5.5881701885064405,0.0007407291605382917
-5.5819715300808515,0.0007487269484978418
-5.5757728716552615,0.0007566598082625635
-5.569574213229672,0.0007645279330894834
-5.563375554804082,0.0007723316768088809
-5.557176896378493,0.0007800715481538437
-5.550978237952904,0.0007877482045687417
-5.544779579527314,0.0007953624455247161
-5.538580921101725,0.0008029152053715396
-5.532382262676135,0.0008104075457582675
-5.526183604250546,0.0008178406476565432
-5.519984945824956,0.0008252158030225901
-5.513786287399367,0.0008325344061363774
-5.507587628973777,0.0008397979446564761
-5.501388970548188,0.0008470079904324222
-5.495190312122598,0.000854166190115923
-5.488991653697009,0.0008612742556150903
-5.482792995271419,0.0008683339544347385
-5.47659433684583,0.0008753470999483468
-5.47039567842024,0.0008823155416463283
-5.464197019994651,0.0008892411554062354
-5.457998361569061,0.0008961258338300287
-5.451799703143472,0.0009029714766942802
-5.445601044717883,0.0009097799815571232
-5.439402386292293,0.0009165532345670174
-5.433203727866704,0.0009232931015157649
-5.427005069441114,0.0009300014191790471
-5.4208064110155245,0.0009366799869842818
-5.4146077525899345,0.0009433305590462165
-5.4084090941643455,0.0009499548366075465
-5.4022104357387555,0.0009565544609210445
-5.396011777313166,0.0009631310066066422
-5.389813118887576,0.0009696859755155586
-5.383614460461987,0.0009762207911309462
-5.377415802036397,0.0009827367935319794
-5.371217143610808,0.000989235234945535
-5.365018485185218,0.000995717275907377
-5.358819826759629,0.0010021839820512418
-5.35262116833404,0.001008636321542051
-5.34642250990845,0.001015075163165461
-5.340223851482861,0.0010215012750842117
-5.334025193057271,0.0010279153242671495
-5.327826534631682,0.0010343178765945277
-5.321627876206092,0.0010407093976403
-5.315429217780503,0.0010470902541279293
-5.309230559354913,0.0010534607160535142
-5.303031900929324,0.0010598209594677964
-5.296833242503734,0.0010661710699036986
-5.290634584078145,0.0010725110464351283
-5.284435925652555,0.0010788408063475956
-5.278237267226966,0.001085160190401023
-5.272038608801376,0.0010914689686591442
-5.265839950375787,0.0010977668468605956
-5.259641291950197,0.001104053473301633
-5.253442633524608,0.001110328446199722
-5.2472439750990185,0.0011165913215043111
-5.2410453166734285,0.0011228416211191868
-5.2348466582478395,0.0011290788414992006
-5.2286479998222495,0.0011353024625822584
-5.22244934139666,0.00114151195701577
-5.21625068297107,0.001147706799636777
-5.210052024545481,0.0011538864771613259
-5.203853366119891,0.001160050498041112
-5.197654707694302,0.001166198402442008
-5.191456049268712,0.001172329772300102
-5.185257390843123,0.0011784442414104054
-5.179058732417533,0.0011845415055033387
-5.172860073991944,0.0011906213322643222
-5.166661415566354,0.0011966835712524174
-5.160462757140765,0.0012027281636742349
-5.154264098715175,0.0012087551519711966
-5.148065440289586,0.0012147646891779336
-5.141866781863997,0.0012207570480119298
-5.135668123438407,0.0012267326296561973
-5.129469465012818,0.0012326919721967638
-5.123270806587228,0.001238635758681346
-5.117072148161639,0.0012445648247647273
-5.110873489736049,0.0012504801659106
-5.10467483131046,0.0012563829441210224
-5.09847617288487,0.0012622744941672033
-5.092277514459281,0.0012681563292980904
-5.086078856033691,0.0012740301464057608
-5.079880197608102,0.0012798978306292066
-5.073681539182512,0.0012857614593817257
-5.0674828807569225,0.0012916233057886516
-5.061284222331333,0.0012974858415266185
-5.0550855639057435,0.0013033517390575748
-5.0488869054801535,0.0013092238732541114
-5.042688247054564,0.0013151053224156693
-5.036489588628975,0.001320999368678103
-5.030290930203385,0.0013269094978218855
-5.024092271777796,0.001332839398488346
-5.017893613352206,0.001338792960813848
-5.011694954926617,0.0013447742744971927
-5.005496296501027,0.0013507876263166342
-4.999297638075438,0.0013568374971161079
-4.993098979649848,0.001362928558282581
-4.986900321224259,0.0013690656677389536
-4.980701662798669,0.0013752538654793764
-4.97450300437308,0.0013814983686753935
-4.96830434594749,0.001387804566383794
-4.962105687521901,0.0013941780138887205
-4.955907029096311,0.0014006244267121036
-4.949708370670722,0.001407149674327559
-4.943509712245132,0.0014137597736155485
-4.937311053819543,0.0014204608820960279
-4.931112395393954,0.0014272592909785244
-4.924913736968364,0.0014341614180683505
-4.918715078542775,0.0014411738005686934
-4.912516420117185,0.001448303087817994
-4.906317761691596,0.0014555560340034296
-4.900119103266006,0.0014629394908890663
-4.8939204448404166,0.001470460400598797
-4.887721786414827,0.0014781257884915796
-4.8815231279892375,0.001485942756167963
-4.8753244695636475,0.0014939184746432313
-4.869125811138058,0.0015020601777234873
-4.8629271527124684,0.0015103751556182574
-4.856728494286879,0.001518870748821963
-4.850529835861289,0.0015275543422949211
-4.8443311774357,0.0015364333599720247
-4.83813251901011,0.0015455152596264374
-4.831933860584521,0.0015548075281112891
-4.825735202158932,0.001564317677001964
-4.819536543733342,0.0015740532386582014
-4.813337885307753,0.0015840217627217743
-4.807139226882163,0.0015942308130646168
-4.800940568456574,0.0016046879651977373
-4.794741910030984,0.00161540080414915
-4.788543251605395,0.0016263769228159449
-4.782344593179805,0.0016376239207927757
-4.776145934754216,0.0016491494036755512
-4.769947276328626,0.001660960982836752
-4.763748617903037,0.0016730662756647445
-4.757549959477447,0.001685472906257807
-4.751351301051858,0.0016981885065591208
-4.745152642626268,0.0017112207179169482
-4.738953984200679,0.00172457719305135
-4.732755325775089,0.0017382655984050192
-4.7265566673495,0.0017522936168542225
-4.7203580089239106,0.0017666689507527256
-4.714159350498321,0.0017813993252782882
-4.7079606920727315,0.0017964924920507736
-4.7017620336471415,0.0018119562329859257
-4.695563375221552,0.0018277983643501987
-4.6893647167959625,0.001844026740976154
-4.683166058370373,0.0018606492605995964
-4.676967399944783,0.0018776738682758694
-4.670768741519194,0.0018951085608319256
-4.664570083093604,0.0019129613913096925
-4.658371424668015,0.0019312404733551475
-4.652172766242425,0.001949953985506174
-4.645974107816836,0.001969110175332583
-4.639775449391246,0.001988717363379992
-4.633576790965657,0.002008783946870806
-4.627378132540067,0.0020293184031131154
-4.621179474114478,0.0020503292925712815
-4.614980815688889,0.002071825261550222
-4.608782157263299,0.002093815044447273
-4.60258349883771,0.0021163074655260765
-4.59638484041212,0.0021393114401678623
-4.590186181986531,0.0021628359755572644
-4.583987523560941,0.0021868901707607093
-4.577788865135352,0.0022114832161579195
-4.571590206709762,0.0022366243921880797
-4.565391548284173,0.0022623230673753355
-4.559192889858583,0.002288588695599762
-4.552994231432994,0.0023154308125830983
-4.546795573007404,0.0023428590315607276
-4.540596914581815,0.0023708830381142165
-4.534398256156225,0.0023995125841424873
-4.5281995977306355,0.0024287574809516276
-4.5220009393050455,0.002458627591447632
-4.5158022808794565,0.0024891328214192952
-4.509603622453867,0.0025202831099019867
-4.503404964028277,0.0025520884186168435
-4.497206305602688,0.0025845587204835763
-4.491007647177098,0.002617703987209029
-4.484808988751509,0.002651534175956854
-4.478610330325919,0.0026860592151087756
-4.47241167190033,0.0027212889891309825
-4.46621301347474,0.002757233322562865
-4.460014355049151,0.002793901963151723
-4.453815696623561,0.0028313045641571886
-4.447617038197972,0.0028694506658572634
-4.441418379772382,0.0029083496762891256
-4.435219721346793,0.0029480108512635744
-4.429021062921203,0.002988443273694571
-4.422822404495614,0.003029655832290954
-4.416623746070024,0.003071657199659853
-4.410425087644435,0.003114455809876262
-4.404226429218846,0.003158059835576493
-4.398027770793256,0.0032024771646368393
-4.391829112367667,0.0032477153765029026
-4.385630453942077,0.003293781718238316
-4.379431795516488,0.0033406830803648004
-4.373233137090898,0.0033884259725685054
-4.367034478665309,0.0034370164993520243
-4.360835820239719,0.0034864603357125067
-4.3546371618141295,0.003536762702930795
-4.3484385033885395,0.0035879283445580017
-4.3422398449629505,0.0036399615026893074
-4.3360411865373605,0.0036928658946159074
-4.329842528111771,0.003746644689949454
-4.323643869686181,0.0038013004883140885
-4.317445211260592,0.0038568352977031636
-4.311246552835002,0.003913250513599267
-4.305047894409413,0.003970546898957385
-4.298849235983824,0.004028724565151449
-4.292650577558234,0.004087782953985434
-4.286451919132645,0.004147720820871169
-4.280253260707055,0.004208536219273875
-4.274054602281466,0.0042702264865269075
-4.267855943855876,0.0043327882311173715
-4.261657285430287,0.004396217321542051
-4.255458627004697,0.004460508876832806
-4.249259968579108,0.004525657258849662
-4.243061310153518,0.00459165606643666
-4.236862651727929,0.0046584981315347
-4.230663993302339,0.004726175517342795
-4.22446533487675,0.004794679518615889
-4.21826667645116,0.004864000664184997
-4.212068018025571,0.004934128721781686
-4.205869359599981,0.005005052705244682
-4.199670701174392,0.005076760884182603
-4.193472042748803,0.005149240796162298
-4.187273384323213,0.0052224792614873235
-4.1810747258976235,0.005296462400625234
-4.1748760674720335,0.005371175654337468
-4.1686774090464445,0.005446603806559459
-4.1624787506208545,0.005522731010071737
-4.156280092195265,0.005599540814996735
-4.150081433769675,0.0056770162001486945
-4.143882775344086,0.005755139607256321
-4.137684116918496,0.005833892978071105
-4.131485458492907,0.005913257794365325
-4.125286800067317,0.005993215120815668
-4.119088141641728,0.006073745650760148
-4.112889483216138,0.006154829754807066
-4.106690824790549,0.006236447532265394
-4.100492166364959,0.006318578865356546
-4.09429350793937,0.006401203476159329
-4.088094849513781,0.006484300986227663
-4.081896191088191,0.006567850978813711
-4.075697532662602,0.006651833063616693
-4.069498874237012,0.0067362269439690745
-4.063300215811423,0.006821012486361122
-4.057101557385833,0.00690616979219472
-4.050902898960244,0.0069916792716468515
-4.044704240534654,0.007077521719514024
-4.038505582109065,0.007163678392897603
-4.032306923683475,0.007250131090580689
-4.026108265257886,0.007336862233937702
-4.019909606832296,0.007423854949207044
-4.013710948406707,0.007511093150949319
-4.007512289981117,0.007598561626503238
-4.0013136315555276,0.007686246121242673
-3.995114973129938,0.007774133424430897
-3.9889163147043485,0.007862211455457988
-3.982717656278759,0.00795046935024203
-3.9765189978531694,0.00803889754756496
-3.97032033942758,0.008127487875110067
-3.9641216810019904,0.008216233634959087
-3.957923022576401,0.008305129688303865
-3.9517243641508113,0.008394172539120634
-3.9455257057252218,0.008483360416552208
-3.9393270472996322,0.008572693355738476
-3.933128388874043,0.008662173276834172
-3.9269297304484536,0.008751804061949805
-3.920731072022864,0.008841591629750546
-3.9145324135972746,0.008931544007447893
-3.908333755171685,0.009021671399919006
-3.9021350967460955,0.009111986255689953
-3.895936438320506,0.009202503329521529
-3.8897377798949164,0.009293239741338293
-3.883539121469327,0.00938421503124808
-3.8773404630437374,0.009475451210400661
-3.871141804618148,0.0095669728074429
-3.8649431461925583,0.009658806910333561
-3.8587444877669688,0.009750983203288412
-3.8525458293413792,0.00984353399863519
-3.8463471709157897,0.009936494263367682
-3.8401485124902,0.010029901640198742
-3.8339498540646106,0.010123796462922732
-3.8277511956390216,0.010218221765911296
-3.821552537213432,0.010313223287578194
-3.8153538787878425,0.010408849467663732
-3.809155220362253,0.010505151438203384
-3.8029565619366634,0.010602183008061193
-3.796757903511074,0.010700000640923373
-3.7905592450854844,0.010798663426666437
-3.784360586659895,0.010898233046028764
-3.7781619282343053,0.010998773728534406
-3.7719632698087158,0.011100352203635724
-3.7657646113831262,0.011203037645059881
-3.7595659529575367,0.011306901608363246
-3.753367294531947,0.011412017961718203
-3.7471686361063576,0.01151846280997508
-3.740969977680768,0.011626314412063068
-3.7347713192551786,0.01173565309181291
-3.728572660829589,0.011846561142304686
-3.722374002404,0.011959122723864011
-3.7161753439784104,0.012073423755848788
-3.709976685552821,0.01218955180238987
-3.7037780271272314,0.012307595952266336
-3.697579368701642,0.012427646693117153
-3.6913807102760523,0.012549795780207597
-3.6851820518504628,0.012674136099988294
-3.6789833934248732,0.012800761528701356
-3.6727847349992837,0.012929766786305863
